,ecg1,ecg2,emg1
0,1.098695224951709,1.070374934548788,0.10173069623535237
1,0.8170920126004607,0.7875502108972038,0.10212599395010068
2,0.2529062692462956,0.22880015608244858,0.02739623069524998
3,-0.20256592846431595,-0.20743088438366822,0.06859508892703195
4,-0.38882477433480367,-0.37037208084859086,0.12729607612491856
5,-0.34866876335368674,-0.31569719944310914,0.03483251342029797
6,-0.23064243135607615,-0.19817675995428075,0.0907463679052494
7,-0.14193714831021842,-0.11823114616442273,0.03537879746758742
8,-0.10707792682107964,-0.08889814798963706,0.1016757217244292
9,-0.09306516795294319,-0.07638901513883194,0.05796637295951512
10,-0.08391294979360146,-0.06699894466600725,0.05659196315763634
11,-0.07239784210738617,-0.054606271590616526,0.060278040326981905
12,-0.05697121788708027,-0.03855009864320158,0.0423844658594797
13,-0.037220117812042,-0.017949303243668994,0.11312514124653852
14,-0.012232096733106764,0.007957324904586636,0.10970727025240103
15,0.01840001349007322,0.039479944778038865,0.05366545097644614
16,0.05466616326145256,0.07650860383050155,0.09637469023059636
17,0.0961437166493511,0.11882202394301218,0.08709280769954533
18,0.1426212607458469,0.16551088144764772,0.062283382514413586
19,0.19182253459742418,0.21340441165428023,0.04929696108708343
20,0.24051380632863573,0.2594497293402008,0.049102154718513646
21,0.2857688964816051,0.3008695964751797,0.06791369237798456
22,0.324999862513842,0.335183618210285,0.11425912243124609
23,0.3559358895183709,0.3601945790417379,0.06577988490413664
24,0.3766084853828778,0.3739775512527428,0.0499433051704803
25,0.38535144812798494,0.37487983225009264,0.10863043675875235
26,0.3807726783321619,0.36133011904411944,0.12991786561580448
27,0.36144327126873027,0.33446059035990255,0.06897718587171037
28,0.32995019155329247,0.2977956024373483,0.05083844890884795
29,0.2899712720470317,0.2545815204848639,0.09611498781986468
30,0.24478184999131622,0.20774633583940602,0.030403566721176736
31,0.19725182053328186,0.1598958471605387,0.0779870729963418
32,0.14982089669941642,0.11328159588600072,0.028181056451913773
33,0.10451112615700502,0.06981708869835751,0.13333146266498164
34,0.06294190557303114,0.031097257026380325,0.06817883035782953
35,0.026330135994665008,-0.00160134157260941,0.1223227107662618
36,-0.004509777150739202,-0.02747156621106153,0.045858086854893766
37,-0.029165924055640453,-0.04704259224263624,0.04564896843857506
38,-0.04768350680056773,-0.061316475818159605,0.10088326553293214
39,-0.06089519447759526,-0.07121854843976583,0.03469974294454153
40,-0.06979958920196731,-0.07759524010180784,0.08211884717791297
41,-0.07529053139210898,-0.08121287626370503,0.1510474053920342
42,-0.07815234066701626,-0.08274365394489853,0.08990344116405388
43,-0.07905855624808854,-0.0827708474447477,0.058355415054304985
44,-0.07857762511124186,-0.08179872257626843,0.059580522940362216
45,-0.07717346424948629,-0.08025264364469496,0.04230607597567935
46,-0.07520546067292583,-0.07843289574211228,0.08475821867237282
47,-0.07292847140875851,-0.07643531480244371,0.1455805564867776
48,-0.07048878120673872,-0.07437315404618917,0.053646670456258524
49,-0.06791127532774367,-0.07233412081412424,0.09292275929223567
50,-0.06533498381340272,-0.0703754272635056,0.10900712487412104
51,-0.06289286665618615,-0.0685231851549154,0.0513961151940381
52,-0.06065218889787862,-0.06676166612066205,0.045810731383915886
53,-0.05861552556127246,-0.06503457093125918,0.09202581006513515
54,-0.05672846168969483,-0.06325475493460694,0.059588516735795904
55,-0.05487986964604026,-0.06130457829508637,0.07809684435999159
56,-0.0529019091127703,-0.05908533600279589,0.058961923491429175
57,-0.05057002709191403,-0.05656642368462321,0.12181319905250616
58,-0.047602957905067654,-0.05229851200029095,0.04781930609508823
59,-0.04373865200141097,-0.04462673576799926,0.05271455822126085
60,-0.03778483855213702,-0.03200449007794773,0.0406348128252824
61,-0.027576850899828982,-0.012993940939169201,0.09454847633888526
62,-0.011309937417183093,0.013720075513055879,0.015770491676119516
63,0.012416880374013357,0.04932976650467993,0.030342476916267135
64,0.044597290835149156,0.09465328070612015,0.08763104243126325
65,0.085965614099103,0.14431204582415647,0.08438617440785812
66,0.13477173703287743,0.1902756929080287,0.12540680131576198
67,0.18333049009723384,0.22587551841897616,0.051349682042259065
68,0.22451911812503378,0.24582018445922654,0.08435740253043558
69,0.25256318317615656,0.24619571877199722,0.07837437145742526
70,0.2630365645374991,0.22485491483353137,0.07089171632188461
71,0.2528512315639403,0.1869188688953283,0.08746606836802648
72,0.22219391633201224,0.141330796157615,0.12350309071345607
73,0.17915957168714178,0.0952865190795338,0.14222644879311724
74,0.13189435720074358,0.05411055528559378,0.10728724787721104
75,0.08666339197694109,0.02125610599000357,0.03967865815662033
76,0.04785075465256751,-0.001623340607405261,0.0579335744003303
77,0.01795948339716493,-0.016113517348197708,0.13115083554663814
78,-0.002445617516659355,-0.02989907227466477,0.10421948910130688
79,-0.01581123573479344,-0.054581090511541634,0.04074596944626388
80,-0.029877554420802418,-0.10539515936533955,0.10395168705176348
81,-0.05894234616307878,-0.1878875313450995,0.05136839423204601
82,-0.12133039966477233,-0.1818734142290215,0.07902018662570963
83,-0.18726731945600741,0.021285089765624727,0.12122122638395422
84,-0.16337765127009032,0.4452726987247568,0.08122288530302557
85,0.06487677337176917,0.9602247242827282,0.09735402411228654
86,0.5289756596958376,1.1291498538127238,0.12472973362263626
87,1.0317964665755517,0.7790333112497204,0.0923824163910823
88,1.1564030608879383,0.2177888105054934,0.09735023774097973
89,0.7801818111442933,-0.17855932666149396,0.1005473187218714
90,0.18867977817349724,-0.2815366677525475,0.09483643949593216
91,-0.18934184969428747,-0.2127994724831384,0.08974723710275906
92,-0.29127900159710707,-0.10765871993295914,0.04751295230467531
93,-0.20499877898581162,-0.037847756247311876,0.061910952253234765
94,-0.09073860736835453,-0.010134356102616392,0.1045294812372344
95,-0.023141058336700868,0.002091763736222498,0.12994105541926887
96,0.0005778994764831413,0.01149596493700112,0.10294488884364272
97,0.012140290560074266,0.02466539357309737,0.0990589312185921
98,0.022649911114307596,0.042623865629947695,0.13947961336539721
99,0.03644473633142518,0.06462781996052314,0.11516816399843693
100,0.05406832669402922,0.0918975364404351,0.09062923716719806
101,0.07647360575432725,0.12473116903072079,0.043943480393042356
102,0.10427819614141305,0.16289173742398405,0.03512146693160866
103,0.13772745453280258,0.2056337262988131,0.03413094731112491
104,0.1766984874925206,0.2520595296342304,0.03591466840840048
105,0.22114404031903906,0.29973790368685527,0.04806208003591174
106,0.2688737599743305,0.34534920374157635,0.07824983761765877
107,0.317045055548522,0.3859265811830137,0.06884860497379654
108,0.36293444589407764,0.41885677351966266,0.0967450588753897
109,0.4039375596257985,0.44188010438389336,0.0880349179390836
110,0.4375691351208232,0.4530904835319517,0.039654710708346134
111,0.4614630205186274,0.4508151084006871,0.1097247738030088
112,0.4733673947176055,0.4331110625076873,0.043461684438565816
113,0.47073240999862875,0.4028242297803119,0.04913640281282333
114,0.45269233256756586,0.3636924442962122,0.08431996822410198
115,0.42269441334580254,0.3190387462079458,0.06297568683732913
116,0.38412025318845355,0.27177138174297655,0.05869327714235202
117,0.34001638903957637,0.2243838032036698,0.03738645985140394
118,0.2930942939321775,0.17895466896730078,0.11646641768160157
119,0.2457303769882083,0.13714784348604783,0.10053381205402481
120,0.19996598341856608,0.10021239728699526,0.026413556197449437
121,0.1575073945230949,0.06898260697213267,0.03952027074372629
122,0.11972705181993318,0.04387756853634771,0.027570764634835074
123,0.08766895889872667,0.02488544743450847,0.05997191711403192
124,0.062040559809844534,0.011287069808270482,0.10522366501702977
125,0.042729335683642775,0.0020466923077041175,0.11619723589410666
126,0.02870277037368454,-0.0037647335842771034,0.051668376638341826
127,0.018957930080005896,-0.006961540267645009,0.1039760645131355
128,0.012601380030792463,-0.00824334402525741,0.06397593922617714
129,0.008849184482379466,-0.008195045022857988,0.05725257495935375
130,0.007026906719251574,-0.007286827309076213,0.10484478366117457
131,0.0065696090540430605,-0.005874158815427105,0.04256030336862365
132,0.007021709247026734,-0.004196309166908092,0.10400719752180607
133,0.008036122765200628,-0.002367338348817873,0.036206380455352564
134,0.009374837695198703,-0.00043538527180734653,0.14604923759641208
135,0.01090933957616095,0.0014896526027935197,0.05999419520003863
136,0.012609374241099187,0.00332378968029867,0.11400589790323833
137,0.014404985581043795,0.005029355613109089,0.050618133104662635
138,0.016197639082188714,0.006614995300712339,0.07451824588146072
139,0.017937588495573326,0.008135668889683428,0.0967809058742606
140,0.019625231332663737,0.009692651773683827,0.07555483804948397
141,0.021311108865352497,0.011433534593462115,0.1348680413065914
142,0.02309505696430699,0.013553109015096518,0.0895006551353668
143,0.02511907278073357,0.01626340725553385,0.06626703643497461
144,0.027570633877319336,0.02076182811676641,0.04281047877793635
145,0.030630716380318636,0.02875583016954456,0.10863089965689268
146,0.03542716131542845,0.04191278179476783,0.07925150346316646
147,0.04365976321932848,0.061859698323643623,0.08124185388271123
148,0.05697973479835365,0.09018324203768684,0.07882849029245856
149,0.07698890736467337,0.1285855231970742,0.03338109640051936
150,0.10523973083629169,0.17482035391826095,0.08732153430081306
151,0.14341613957115318,0.2221716887601219,0.1271029821704339
152,0.18972738887398444,0.2642215791645616,0.045239422364947275
153,0.2373574450340372,0.2949846737408759,0.08148143454218301
154,0.2797726872075066,0.3089144998859314,0.05420379316021049
155,0.31097403312714694,0.3009181655741399,0.12564309057168715
156,0.3254965136198543,0.2714144899569728,0.058344604987773746
157,0.3183778671135417,0.22921522123468555,0.07760924411903082
158,0.2890437022555054,0.1822673825130142,0.10924442022190752
159,0.24624909793486302,0.13678078440389851,0.09886432458570511
160,0.1983585528233469,0.09722802502548251,0.09676545134634465
161,0.1518998833192115,0.06634449000211366,0.021246566897009145
162,0.11156134093410218,0.04506133628042347,0.08263357175831135
163,0.08014045925542378,0.030769464825308533,0.09268122126406264
164,0.0589298714600248,0.014862653181497477,0.07796589758467515
165,0.05026205470895999,-0.017688687078217805,0.05511757626060459
166,0.03311759804060098,-0.08379369648638153,0.09842581064603163
167,-0.00721526322274475,-0.14409141500039055,0.07228300774229342
168,-0.0689811255867543,-0.09522935169307306,0.10015108966894946
169,-0.1332748409154893,0.17662591939248118,0.10281705364304883
170,-0.10184260016466065,0.6722001448065469,0.08611202773008655
171,0.16123023125016123,1.1122434869419442,0.07243819687913514
172,0.6424091464763672,1.0976640478257935,0.09565227221359379
173,1.1192015629606644,0.6222181711381678,0.06921840030390876
174,1.1532367815418398,0.08384012582869631,0.049271042583644245
175,0.6951486045658445,-0.22219327068106562,-0.3459059395160115
176,0.1431186343492937,-0.26103281825202435,-0.269564591036243
177,-0.17455686359715053,-0.15708092413478936,0.13676717325047566
178,-0.20810266523418394,-0.052751342565908715,0.7797544725559803
179,-0.10999222184537341,-0.002769439686879314,-0.20517196776272462
180,-0.012617073390246068,0.015499104478613137,-0.038738744614474005
181,0.03474846710311357,0.02397116933010484,0.38536845085266164
182,0.05282446245198597,0.03386230803454768,-0.9448016409312381
183,0.061361385214917095,0.047199939097558645,0.5247491286531375
184,0.0696256720711492,0.0645471082825413,0.40206153980799836
185,0.0827781570828787,0.08686218718797177,0.8479832245790148
186,0.10187921738353024,0.11463858373085367,0.49796010651746775
187,0.12560949545920796,0.14807839573554202,-0.8609135771269443
188,0.1551029302802224,0.1870904930472636,0.6338503923606738
189,0.1905090859511024,0.23046346840092663,-0.8372849599055422
190,0.2312611339707307,0.27641448736407603,0.6048718582367352
191,0.2761128673997721,0.3228019949251932,0.23156150752938287
192,0.32345315536953445,0.367125757273509,0.5714255119977493
193,0.37071530481417414,0.40653089896701256,0.42347820565136796
194,0.4139812353128457,0.437811268528615,0.23967924204149377
195,0.4499426680393468,0.4580224766099639,0.7537831954549923
196,0.4759657383454512,0.46561997244307035,-0.1890744707900978
197,0.4900909957609093,0.45989621374471357,-0.7382665148877636
198,0.49103340399344764,0.4410789538167449,0.6938185291774721
199,0.4781646022001934,0.4103313515632187,0.4945098754984546
200,0.4510796429706876,0.3697519714903956,0.007547582461276681
201,0.412773101687013,0.3223747837067387,0.6648338820260502
202,0.3671675062766927,0.2717641075398305,0.2846002567033512
203,0.31770098500781685,0.220686418909973,0.5385502146728716
204,0.26731511132738894,0.1717897521079312,0.30536006060606385
205,0.2184719473652276,0.12710273276262463,0.49420837455285804
206,0.17315513427938156,0.08800305994230112,-0.22940849306163297
207,0.13287240396982344,0.05520893695673982,-0.33257146307233415
208,0.09865610301192307,0.02877728385665707,-0.3552861424885856
209,0.07107758438740716,0.008112779747952109,0.7271821230065842
210,0.05003125501164176,-0.007463467964459879,-0.3150950176617653
211,0.03447860585368787,-0.01875449160298266,0.8252044505029948
212,0.02337497548856791,-0.026655418688218767,-0.7001053648901249
213,0.015789426156134934,-0.03194630702143216,1.0856636710218972
214,0.010907931512689106,-0.03530345740030941,-0.23581767525298772
215,0.008029536368143676,-0.03728578526672474,-0.840889888658832
216,0.006565455427436944,-0.03833162231382118,0.6871266843187231
217,0.006039073290533255,-0.038758716486009315,-0.8699203710002146
218,0.006085944452422847,-0.038761102384104344,0.0355110939177826
219,0.0064537933031215645,-0.03842745647251578,0.15999176887872218
220,0.007002514127671227,-0.03790280447234834,0.8993744055948404
221,0.007703645438353085,-0.037309259508954945,-0.6148485141666071
222,0.008540094951807173,-0.03672214474916898,-0.05246712653265226
223,0.009385859349435838,-0.03616660936378682,0.2006665499987639
224,0.010149992958652699,-0.03560747641501482,-0.08687905915419601
225,0.010806284738716181,-0.034960763704669974,-0.2979311141801637
226,0.011398765138587619,-0.03410824056820683,-0.8123390541696323
227,0.01204040552700945,-0.03289162034133418,1.0375506366690834
228,0.012911624587866825,-0.031105890854092613,1.0819937024765334
229,0.014260273886273876,-0.02859329031619228,0.013964046635588446
230,0.016373107145819847,-0.02448981456348032,0.6013450472832362
231,0.020592458061179417,-0.016719134854687675,0.5898741468726263
232,0.028825440902794083,-0.0034589436263193496,0.708554622800154
233,0.04285301982753247,0.0167792912415087,0.5619765955602583
234,0.06435775640753964,0.045148725233941284,0.4787794017128032
235,0.09490009994570354,0.08249230922522115,-0.8071862501806716
236,0.13559323279642962,0.12899288280549637,0.41921898143572117
237,0.18174643617406216,0.17754402732454685,-0.5569273906014477
238,0.22648336255129603,0.2200598041954873,0.8292474973529466
239,0.2632267528837854,0.2501915453500662,-0.25487492011391494
240,0.2856984366101279,0.26332785323865165,0.5200236565241833
241,0.28791046229327927,0.25659460083024116,-0.5534246918704753
242,0.26652520941723873,0.22919756804638008,-0.006050932345364903
243,0.22839249572720102,0.18688159502599666,0.5946887149033264
244,0.18169656137856358,0.13853870573151708,0.6497577758872946
245,0.13331455000656928,0.09117638264299811,0.2494412346589388
246,0.08883719754592172,0.04979063155871467,-0.25298534168213477
247,0.052568460312513464,0.01736818566238636,0.3006646700419319
248,0.026541029968289238,9.558048669091809e-05,0.6148552742511056
249,0.009614722477046114,-0.010692156493245588,0.22077192476699492
250,-0.003822856346928392,-0.035973049761256246,1.154492067619434
251,-0.028947676073414114,-0.08323155746377997,-0.6239606895671227
252,-0.08547186621696576,-0.14617565499611618,0.4246501411545936
253,-0.1578475890703236,-0.20476996542140902,-0.07550790967428492
254,-0.15602633335598665,-0.18522781558374535,-0.013961022315648334
255,0.05193430394787433,0.06461692499610557,0.6127173312192945
256,0.511600046531619,0.5383420184469803,0.6402482598383228
257,1.0102032239885677,1.0155059725988984,0.28111773653962385
258,1.1105170719785395,1.082869370129683,-0.7238337939678293
259,0.6916981144675161,0.652762209644265,-0.08945561738098247
260,0.1265140792190503,0.09724483758966823,0.00771934819053764
261,-0.2356640744178632,-0.25204572876117365,0.0005921614872271951
262,-0.31369373301001235,-0.32380949414283416,-0.3717991361363663
263,-0.22353215330698872,-0.23373901889655757,0.32552120556988406
264,-0.11654011497355705,-0.12776939442245067,-0.24366841629736405
265,-0.058844990665036394,-0.07013709598669596,-0.35007797635531257
266,-0.036468543221832884,-0.0486223762461179,0.74138633023892
267,-0.028661857902728002,-0.041416583372427526,-0.21762649933123715
268,-0.023224500298014792,-0.03548278588079115,-0.7505675965314408
269,-0.013104883541907652,-0.024381418302869877,0.3924365565575976
270,0.003599731674101727,-0.008219287269762591,-0.8307785172566533
271,0.024619667876451735,0.011981016413473404,0.7982354122815533
272,0.050874566560426875,0.03775665307698312,0.36444829475139867
273,0.0830518994448861,0.06941385768660607,0.3559083707085511
274,0.12087399319048203,0.10665499243223982,0.05772809308183263
275,0.16339248819838564,0.14858230718488144,0.06889368586468037
276,0.20898403722044792,0.19391461195345097,0.04526562651555715
277,0.25559848789473727,0.24046909447390113,0.09827695566220268
278,0.3003614298251598,0.284845712174286,0.09822885165834153
279,0.33957395893919057,0.32395768983676765,0.07003333323585459
280,0.3702130085433537,0.3550937369984596,0.048434867769122925
281,0.3899739985062039,0.37591804795141304,0.06830151138085912
282,0.39727083525833595,0.38447030174262753,0.08776130248597429
283,0.39123503654183445,0.3788449495508932,0.12883781452536944
284,0.37118916118907386,0.3580751391004791,0.10179244049694373
285,0.3385873999261361,0.3253594153066764,0.06076092683083465
286,0.29720698788847233,0.28401954289663883,0.08219162516598995
287,0.2504398197925705,0.23708150319232407,0.07684963496701022
288,0.20125355031844558,0.18727610448170653,0.1011489533977868
289,0.15219300013353604,0.13704186710667973,0.07556348439569276
290,0.10538019978017354,0.08852511351783995,0.08834910648748402
291,0.0625143896755644,0.043579968274468694,0.022909548566052935
292,0.024872020111807603,0.0037683580445506317,0.011099540694934535
293,-0.006692526040630128,-0.029641112498687748,0.0728630987791271
294,-0.03177310258517264,-0.05587931679001797,0.06312055665074211
295,-0.05104249433309061,-0.07559682045303122,0.08453938966243817
296,-0.06551689086952475,-0.08991906961608931,0.08689680012427556
297,-0.07610710386192154,-0.09987374759135483,0.0954660363840515
298,-0.08361842816149515,-0.10638862933307486,0.10144731164016049
299,-0.08875064180323121,-0.11029158143758463,0.0793754693403016
300,-0.09209800600588448,-0.11231056214330513,0.1119192383229383
301,-0.09414926517198,-0.11307362133074457,0.01792611367755272
302,-0.09528764688781245,-0.1131089005224975,0.10788490283427586
303,-0.09579110208250101,-0.11284424888958952,0.07661576993411755
304,-0.09585551150845802,-0.11257011808672746,0.03537439989445665
305,-0.09561403188743045,-0.11240862943001846,0.06566319373286898
306,-0.09507634433337897,-0.11237470544189512,0.07349761453910222
307,-0.0940919511101242,-0.1123557974411046,0.07132385558131363
308,-0.09296525129943473,-0.11196021602322846,0.03946357415781033
309,-0.09196932686950532,-0.11151216130976908,0.029175865664112705
310,-0.09122202152159482,-0.11135647002864671,0.0420340494212722
311,-0.090685940690026,-0.11160757988558587,0.08424814313019002
312,-0.09016845154218524,-0.1121495295641152,0.1000736911861755
313,-0.08932166215526516,-0.11263601805529058,0.09343423718542719
314,-0.0876368070454068,-0.11250640143415583,0.025414511878060007
315,-0.08443664928154596,-0.11100734079228414,0.0909344839246087
316,-0.0788868161463236,-0.10716050462002623,0.11123604581788561
317,-0.07028457946295473,-0.0997571623855379,0.08749357379600908
318,-0.05576324506868323,-0.08735818453477809,0.13728441897121857
319,-0.03230779781612247,-0.06829404249151191,0.09670192520013071
320,0.0009636341204535348,-0.04063419533606191,0.08299643703718777
321,0.04279486748960801,-0.0026461959544347843,0.07282949033726956
322,0.08979166396275298,0.04226228232259785,0.07151937606890044
323,0.13643986252492699,0.08887492362652202,0.059820958439428654
324,0.17534996272312744,0.13151602442651328,0.02156021427120234
325,0.19838879659022515,0.1640436873175116,0.07460166449247982
326,0.20079430017115324,0.1798580204177323,0.0734917188133561
327,0.1819245944841558,0.17300191328818224,0.10579321434984974
328,0.14511480839876034,0.14603552249308824,0.08822522404196287
329,0.09803557826977218,0.10561507339723122,0.09670181842511824
330,0.048619740500257906,0.05823661352965688,0.06272845213980364
331,0.0033573339973626817,0.010207555228604063,0.04965844205115746
332,-0.03380037443757402,-0.03235332435851111,0.0630587604654631
333,-0.060771699134812784,-0.06624687357178093,0.12854481465103956
334,-0.07702334933537054,-0.09027029024060124,0.11236978745811972
335,-0.08881197948462638,-0.10607347365931329,0.13028711947509583
336,-0.10928324055291487,-0.12158175830293518,0.04877486967430397
337,-0.16252892018881773,-0.15101328891795643,0.09448768860280318
338,-0.27360890876247146,-0.2137975102067996,0.09152547919560305
339,-0.2775229020690667,-0.2827935904936853,0.09106296219961153
340,-0.06453350553700028,-0.25748710225634697,0.06804806309030591
341,0.3567869219676808,-0.02537607316984384,0.05156609748618871
342,0.8586195813032286,0.4427053878279473,0.10829090356738721
343,1.0902119039269589,0.9106478816718875,0.022239488594388682
344,0.786567062172081,0.9933767628587745,0.07737503052525374
345,0.2133870314242096,0.5718298466949834,0.04994886279274261
346,-0.2297447178357143,0.023978423344434487,0.08410248894561681
347,-0.39418590332649983,-0.32002019614245375,0.09079334129249339
348,-0.3418046609797995,-0.3910346029672554,0.04357112067813505
349,-0.22625035866051169,-0.2948903911474085,0.11004885997555769
350,-0.14865331418660624,-0.1875538375014308,0.07589321936182697
351,-0.11721251146008853,-0.1290039203222247,0.05438774806396915
352,-0.10632413641776568,-0.10987742305130889,0.09039187036448423
353,-0.1002441899059435,-0.09997177130112023,0.05381748926541009
354,-0.09030856039152876,-0.09042305094477066,0.0954592938063444
355,-0.07494767080926469,-0.0776653242877713,0.03212518267535492
356,-0.05557556665713807,-0.06095443202326463,0.06535854458323224
357,-0.030703125393811287,-0.03948016952185283,0.11126918190079017
358,0.00010158000364368733,-0.012445923156328328,0.0953967198390592
359,0.036744113945698105,0.02036302732604173,0.028307910743191906
360,0.07860367823036353,0.05859158102396188,0.045638858452641894
361,0.12462712720231117,0.10131481588210209,0.08730564383517274
362,0.17351149213418665,0.14733056497507827,0.052235375957727134
363,0.22190109847958744,0.1942995592671911,0.084912314557079
364,0.2664569263435571,0.23860730647249734,0.07048710385966733
365,0.3043258098345032,0.27708050602942874,0.11302977742084874
366,0.333123284464154,0.3070448929981931,0.12851173089961967
367,0.35091301190586227,0.3263471508192202,0.04854470273009521
368,0.3562055841843338,0.33335245150829645,0.11873167882445124
369,0.3478497303506537,0.3268939626613836,0.0845196044870252
370,0.32502530245971506,0.3058498943286496,0.11893871492245266
371,0.29080978639720845,0.27297903628565634,0.06515041203333695
372,0.2487562983094367,0.23196497593537296,0.10292866759709032
373,0.20202818175216938,0.18607569214013225,0.055827100422717
374,0.15339852850519511,0.13816600671115414,0.05082410894872752
375,0.10524442695011223,0.0907070094302119,0.08531691035678533
376,0.0595488355037354,0.04577647365466012,0.07772627601551851
377,0.017904850581654284,0.005037021622006382,0.09650442957749317
378,-0.018484203991090176,-0.03026433297089147,0.0939756841425644
379,-0.04880477697999043,-0.05929618496781217,0.11688138876618194
380,-0.07266235150571645,-0.08169828630767048,0.14104098783326863
381,-0.0905756311801869,-0.09810650783430057,0.0805358786939886
382,-0.10357112629909089,-0.10954811537676151,0.06779573581082705
383,-0.11258680944968426,-0.11694585713048605,0.06279356797081882
384,-0.11845826078857245,-0.12111617132367127,0.08020088117618054
385,-0.12191640422064068,-0.12281080404954006,0.10507614698580606
386,-0.12358777494691374,-0.12271189069654867,0.06956099442776617
387,-0.12399656948358168,-0.12139426862884993,0.08701441633497187
388,-0.1235644799314076,-0.11932375916199714,0.07280541552667853
389,-0.12260777463543748,-0.1168527706731628,0.059478324608444315
390,-0.12133822615478039,-0.11422169623911141,0.0885600712807144
391,-0.11985825857798858,-0.1115337288528056,0.10902771091365736
392,-0.11813206769349847,-0.10886015103362943,0.07547338499173556
393,-0.1163021783029414,-0.10643208109381133,0.03539589316059415
394,-0.11450836892569595,-0.10441614049966125,0.06189987307877465
395,-0.11282537092645699,-0.10285516131270765,0.09434872640865453
396,-0.11126380974807389,-0.10166217222151072,0.04767371658523842
397,-0.10976224079352151,-0.10067128494356375,0.06342338212601722
398,-0.10818670062613683,-0.09964056181277361,0.06726468119346506
399,-0.10633070696961872,-0.09825201577946015,0.05743432974842938
400,-0.10391525870802831,-0.09611161041035694,0.08253481200737334
401,-0.10058883588578832,-0.09284732047835016,0.06715085359539985
402,-0.09610882971443589,-0.08742879713529135,0.1137719061434341
403,-0.08884142278748129,-0.07709242627287935,0.09090319677646544
404,-0.07613399367729431,-0.05968048159358455,0.07460778406602213
405,-0.05614311951540106,-0.03389908375792606,0.08890035296111332
406,-0.027854657642939464,0.0006699624757465989,0.1044569918710033
407,0.008893252780703593,0.04364779905677701,0.07708680040981589
408,0.05345312282135672,0.0932554440107763,0.09135069488981543
409,0.10299380933490106,0.14048493040341375,0.10565593568235607
410,0.14888599551466372,0.17669655891621097,0.12202288137163095
411,0.18343276240588827,0.1960619019306835,0.08214629982120471
412,0.20126329791722578,0.19556371593873637,0.08171964079188579
413,0.1993328968207538,0.17499594154267448,0.07548002646891504
414,0.1769216769453745,0.13726723508974165,0.027473611556231695
415,0.13813633626713026,0.0905531069497753,0.08972721655317029
416,0.09170612988450932,0.04338632577073294,0.08196862120961552
417,0.04493370595032702,0.0017368160593565773,0.12161576596607965
418,0.0031966509598941825,-0.031005997003245207,0.06646597817246236
419,-0.030052510248988,-0.05403318756160303,0.06756721670791974
420,-0.053683635301826786,-0.06873446723554072,0.1361981576750123
421,-0.0687737121510704,-0.08208027539874245,0.10722818715733604
422,-0.08009445554548682,-0.10856292228742061,0.05941643024911213
423,-0.10122018197216044,-0.16499138975385685,0.11769588452336467
424,-0.15206049836715524,-0.23605461663750174,0.05911931788303433
425,-0.22353289399055276,-0.22314294656103137,0.10266054412331638
426,-0.24274701687883826,-0.010521328873921505,0.11974094392128981
427,-0.09093344095196586,0.4451838190462087,0.11629935484276761
428,0.31529527723202344,0.9263534297556021,0.14579871914212225
429,0.8457152841718386,1.0322175288319546,0.04638611359585182
430,1.1180358640345325,0.6285373231181101,0.06118560527144233
431,0.8637865842457808,0.07497137541887183,0.11405244166707466
432,0.2985325866617603,-0.2819544524501155,0.0720889953013917
433,-0.1632679356640934,-0.3657867752218582,0.05782409061379992
434,-0.3480538824798622,-0.2744949332774548,0.0582085697767922
435,-0.30471790131581267,-0.16472731631093257,0.07707483192881107
436,-0.1873327874383374,-0.10319069165762354,0.03900501471253205
437,-0.10360249179247694,-0.08185869517088448,0.09154441948510346
438,-0.06669246696311087,-0.07060228756935631,0.08738968855245559
439,-0.0518070885261878,-0.05954086794588959,0.10852618943566178
440,-0.04437479595595803,-0.0450263470877977,0.03447743610583409
441,-0.03499059637996587,-0.026255126942389094,0.11439594334893899
442,-0.01930159665132251,-0.002539991666664342,0.06066161778020989
443,0.001996915099749679,0.026858656301584596,0.09351792342109713
444,0.027471452347545534,0.062113208262536225,0.06656151615050651
445,0.05869472405761878,0.10284212065313353,0.0850116784839013
446,0.09574740484953198,0.14811107352747194,0.10881674177424117
447,0.13806179441755495,0.19672015908805318,0.12511133720706344
448,0.1844253453595402,0.24616805316948462,0.12080149664366224
449,0.23298295535478403,0.2929555039642577,0.04659028323868887
450,0.28166076638077786,0.33399284156652403,-0.03818088387807238
451,0.3271387364480422,0.3666121007377485,-0.8501114160591686
452,0.3659505192823327,0.3885653896576664,-0.118322794005954
453,0.39534099693904856,0.39802480408217317,0.7493862156841707
454,0.4132662798032549,0.39327160545957884,0.8952379471464404
455,0.41839542251049144,0.37310698595185343,0.9017173153262215
456,0.4101177354854138,0.34101662447346465,0.2559013104716364
457,0.3879684574514877,0.300703852575058,0.7608690258315094
458,0.35407938784620774,0.2554539690011813,-0.35623628383381206
459,0.3121443925929326,0.20813423319447022,0.3245270591112695
460,0.2654472896060613,0.16119386529564153,0.8864088792863003
461,0.21686105476961584,0.11666404614351,-0.5365125526314084
462,0.1688478219372154,0.07615791727496282,-0.15915200431039483
463,0.1234588829320934,0.0408705809249765,0.2502309541627031
464,0.08233468754709322,0.011579100026613377,0.01886278219478208
465,0.046705423848047295,-0.011362345441662265,-0.46085409250327086
466,0.01739715402280327,-0.028185876835442936,-0.3459550060253765
467,-0.005266927890328412,-0.03987824064282709,0.7100829596951245
468,-0.0220930371618658,-0.04745983380154177,0.661981620711471
469,-0.034089247298658136,-0.05183571802044366,0.8989215619071583
470,-0.0421654883573888,-0.053796670504384005,-0.45972590738416225
471,-0.04713648102043588,-0.05402142932984613,-0.48986639968673107
472,-0.04971827112698378,-0.053074041407374706,-0.0054978030018899655
473,-0.050527387472004325,-0.0514032179659797,-0.9289500310538891
474,-0.05008084180625756,-0.04934233455313686,0.7436346194669671
475,-0.048795499265148576,-0.04710572136604156,-0.10597113296836709
476,-0.0469827921844638,-0.044746355524496316,-0.31308959586833396
477,-0.04485139454809661,-0.042326319545342404,-0.11687233255580655
478,-0.04251043009568834,-0.039953999994788866,0.5530922908492276
479,-0.03996950552266719,-0.03768265720109802,0.29256138980721663
480,-0.0370901566251243,-0.03550969683443936,-0.3285612054945498
481,-0.03391100022356547,-0.03337666990688845,-0.0283839901873711
482,-0.030690248005980636,-0.0311692727724281,-0.6285083408225072
483,-0.02754691696129215,-0.028717347126947013,-0.0024611114551851138
484,-0.0244552109368358,-0.025794880008240734,0.663726070256203
485,-0.021247642847169602,-0.022122624989402324,-0.17020190640773464
486,-0.017652510282423695,-0.017455611929423034,0.9608845577649486
487,-0.013281688855203387,-0.010390264659010502,-0.017041321669328275
488,-0.007602823606101551,0.00108760669328903,-0.15708250619199815
489,6.125356587565606e-05,0.018697381941485507,0.16627487038210703
490,0.010345432892782908,0.04386121501106071,0.6616224758157305
491,0.025895129939313886,0.07770945180292961,-0.16493166338627765
492,0.04939646874552281,0.12121276988337658,0.35277041811287796
493,0.08187770866565394,0.17047974310919747,0.4074546214305191
494,0.12270865585084247,0.21762708087641797,-0.13338500605999504
495,0.16960387152492845,0.25580078448264887,0.3734987134486325
496,0.21887984232281354,0.2793040014337871,-0.3330801910247832
497,0.2632884547007886,0.28359409847469985,0.04952374694942418
498,0.2938027102421108,0.26531939926588766,0.1302121764336026
499,0.3049087078357168,0.22813487665023646,0.5884584982180103
500,0.2948022358500388,0.18181075499334898,-0.38689655438350773
501,0.2653887721329903,0.13427081048454279,0.3069501478778523
502,0.2220298239826213,0.09125211250678003,0.31786427243275245
503,0.1724583978461979,0.05630502363668198,-0.6937779731865489
504,0.12455585323714363,0.030793199644505557,0.6626400451889358
505,0.08371100982820665,0.013902642387683784,0.3650394958429744
506,0.05264832269560889,-0.0015471703524957015,-0.7683264890622586
507,0.03142242218991779,-0.028377861579653135,0.12943271414616525
508,0.017581799259258884,-0.06326040930680651,-0.26533773077625755
509,0.003372068164156633,-0.08349789696193002,0.22195322028862
510,-0.026986560247108677,-0.0470255751013602,0.3123508333334275
511,-0.09115939844856606,0.10758465373480687,-0.3391618551978269
512,-0.15411903051227133,0.46112120097195464,0.7963910175159035
513,-0.12028035475561849,0.9906378206938234,0.7639893189386381
514,0.12796185205945543,1.207627620480726,0.8082767515527183
515,0.6104255030375275,0.8967465453766731,-0.3287903078997977
516,1.0931295346761585,0.33490229876133654,0.6248567835658607
517,1.153167463669624,-0.09947525660423842,0.6336552681178783
518,0.7293386519761539,-0.26031495462219023,0.3864734270574992
519,0.16634009104973604,-0.20467046503298766,0.26151780494883164
520,-0.17803364002443917,-0.08668831557965775,0.022576393861432127
521,-0.24495882997475418,-0.005348844214374699,0.26197892385079735
522,-0.1476989003937691,0.024392039865922713,-0.5773985101555417
523,-0.037362368262763575,0.03688188936441486,-0.06826263404027938
524,0.017852839727718017,0.04587330839201784,-0.6381380546691959
525,0.037825921588300004,0.05765977438296322,0.5813557246475121
526,0.04665594026660442,0.07304850110869428,-0.13291005623427202
527,0.056354517730762325,0.09289181905241811,0.9371301637552069
528,0.06943267051858824,0.11788162626806988,1.0578325856181299
529,0.0865986357499982,0.14835772624020793,-0.4428202612674704
530,0.10884287235226979,0.18442239593497545,0.99180480379466
531,0.13672910987805598,0.22595518374036833,0.17617381209290542
532,0.17060280722267698,0.27109420850413063,-0.46811464718583995
533,0.21062600584760013,0.31761164442295986,-0.6199762990599175
534,0.2552269726497657,0.36316957573753317,0.0690352967305639
535,0.3023725031213707,0.40532004764620183,0.22112637776784483
536,0.3498114065147097,0.4415190721469958,-0.029390940131409554
537,0.39504865282388235,0.46914558170146187,0.024530096437319224
538,0.4353839441772998,0.4854731513292294,0.5315772935360211
539,0.4679181714496638,0.4881247383399413,0.5815797917875175
540,0.4895534142619672,0.47730999541888885,0.07900234902637263
541,0.4974206267989036,0.45440591445617406,-0.7886945877724217
542,0.4913267684222558,0.4211502576571148,-0.9146430205612914
543,0.4724529403018349,0.3796413373057504,-0.004650384352522602
544,0.44239625967625945,0.3323380157648391,-0.2890599424880428
545,0.4031684224995794,0.28205969824242594,-0.42605965703768467
546,0.3572072097253422,0.23197386956169275,0.985757768315925
547,0.30740010757752817,0.18540554111291868,-0.2524533980066341
548,0.2570558523697659,0.1439991578419962,-0.3949361568866445
549,0.20977915231030494,0.10834868682588984,0.035873032758734574
550,0.1675088330904592,0.078783901445578,0.12558181195823176
551,0.13090149120598313,0.05532709138295522,0.0554815656773303
552,0.10034936377766894,0.03768913709606704,0.09021909638010053
553,0.07591860773992001,0.025269827050927247,0.09169704976547983
554,0.057347733795931805,0.017161529587753514,0.1046148801367768
555,0.044047545427708557,0.012153749274634794,0.06862587311723092
556,0.0351004220124256,0.009334514038989833,0.07618925055790658
557,0.029271250058530894,0.008218561000429279,0.12288155237887646
558,0.025706869363466348,0.008280764796523728,0.0512908933172522
559,0.023927746902364717,0.00908750804685324,0.038465840824741714
560,0.023434709358842586,0.010296681353006664,0.08015031686098349
561,0.02382671054260764,0.011657683298582222,0.05835837774599027
562,0.024800831389458194,0.013011420449186581,0.04382640099500045
563,0.02615227996128313,0.01429058098002075,0.10877410144252407
564,0.0277743914460627,0.01547327849072648,0.06262442893225881
565,0.02965893965409704,0.016442440732064346,0.09561153029249682
566,0.031796418553367886,0.017115895484083637,0.12818151735088326
567,0.03404454385455,0.01752902212892258,0.06167328301365078
568,0.036295159337239855,0.017794427090344813,0.07329900242464371
569,0.03850351889381316,0.018082300289017902,0.07253120130905326
570,0.04068829475320625,0.01862040374173238,0.021780987078501877
571,0.04293157539934425,0.01969407482070516,0.14156190581513906
572,0.04537781021397353,0.02152663006981119,0.059900777452870424
573,0.048212149283295314,0.025312786336703322,0.06981036580499549
574,0.05170353415687609,0.032960244868899966,0.060142271380027236
575,0.057503332424921116,0.04620204826573922,0.07285320951109957
576,0.06744738829516221,0.0665751712362998,0.08092319712569415
577,0.0832408858719126,0.09532070417289286,0.10727898118646349
578,0.10641629934430138,0.1335729873515937,0.13205505166740047
579,0.13830232020657382,0.18093728920042854,0.043514276534233724
580,0.18016653883656103,0.23013270733974564,0.08174678496827142
581,0.22751403517583507,0.27380101879741253,0.02953258726175131
582,0.27235217389026567,0.30582979414308914,0.06014749201097529
583,0.30791057061727145,0.32135239748825134,0.12710132421585024
584,0.32867610414944143,0.31674798648617414,0.11143860586716099
585,0.33039291643453755,0.29039111459586475,0.08290322701727385
586,0.31020717956875254,0.24822684084822924,0.04783695737304001
587,0.2716599119052226,0.1988591124215783,0.11458049845134155
588,0.22405741563636294,0.1492586884021938,0.08876481747157852
589,0.17514230055769897,0.10464144914328413,0.049667095995730964
590,0.13066809588438047,0.06846753546051153,0.10707341505885001
591,0.09439925025119446,0.047321638982694175,0.07179768170078155
592,0.06808653716841767,0.034937556428915884,0.10089501766591255
593,0.05064467627881389,0.010100771100615805,0.03716327859846456
594,0.036570066791523206,-0.03575624669368806,0.04458824584800658
595,0.01366500985004398,-0.09803039728056681,0.08514253268586933
596,-0.037240874644757734,-0.15895871915831514,0.0782202026976936
597,-0.11141871205887714,-0.1664990146021523,0.09208953901554179
598,-0.12513362631435754,0.026336748486989987,0.08158615082745373
599,0.041698538565902714,0.45830782028259504,0.07787163232150775
600,0.46100606408784806,0.9752372843421394,0.029638684870166097
601,0.9842832724600687,1.1724249754549292,0.052718394271952726
602,1.1842511089147234,0.847473867100031,0.055671647018516096
603,0.8754371421036932,0.28467269516643406,0.11201006463538231
604,0.3008837912103888,-0.13375944545925794,0.10365363921434362
605,-0.11534507002535427,-0.2715603726831862,0.09962189060905234
606,-0.25102272373974116,-0.20710495860356057,0.08663619991328445
607,-0.18096626864881615,-0.09481364547146932,0.10783065647353385
608,-0.06571807369859503,-0.020220439597577543,0.061821302016553614
609,0.004706532564918154,0.010516167971527612,0.07106778672607579
610,0.02843476412975054,0.022435596239578685,0.09118027469083012
611,0.03781120056799462,0.028839461239611903,0.05006857819667116
612,0.04575230083781934,0.037894472335520325,0.05947995094884501
613,0.05706773523867194,0.052754363639390886,0.059308739804486706
614,0.07232063945712845,0.07194629395249269,0.0671284107388643
615,0.09257907237274027,0.0957068966829252,0.02401712420521015
616,0.1184838135430412,0.1250391979753197,0.08772183818548965
617,0.1503217040648856,0.1599183357333016,0.08700595584032425
618,0.18813904292880212,0.19971428335426578,0.10732452388846656
619,0.2309736151994697,0.24320215747118473,0.10667206679915114
620,0.2769369971413197,0.2890114087392262,0.1121179104094219
621,0.32382437811065434,0.33416326562311477,0.12125708430380705
622,0.36911664478525574,0.3752160313345564,0.14353321509049483
623,0.40998038116439106,0.4092583064395155,0.06875002015181435
624,0.4432678685688008,0.43390898885820517,0.06583736548556535
625,0.46561514943406146,0.4473172738651053,0.09224356820390199
626,0.4749275464412302,0.44816228803579994,0.07436261581847924
627,0.4705689320529481,0.43542153460410543,0.0936909989482491
628,0.45277322536538755,0.40862656617091825,0.061208174854134004
629,0.422633710480972,0.371172726884787,0.10865608956902613
630,0.38210092412571456,0.326609136324574,0.06388118647190466
631,0.33398265564921553,0.2780615140378972,0.03752684563135128
632,0.28194331066339284,0.2282321795411474,0.060123346001651104
633,0.2294907921592685,0.1793998455140588,0.07371097740203966
634,0.17905089443448008,0.13341894514173702,0.06550812530016561
635,0.13271433583983744,0.09172027783737403,0.05746566950855339
636,0.09193066586526558,0.055311500970963885,0.04980876378712079
637,0.05751611955194281,0.024802059339870106,0.05490664322697461
638,0.029660165352215512,0.000427227358326376,0.08829310909344493
639,0.007912562945820633,-0.018306252217174274,0.07364290415678591
640,-0.00871113306551444,-0.03236441658130589,0.04991409182946972
641,-0.020933689964471574,-0.042624861316107925,0.04056817885243004
642,-0.029608823352807463,-0.04985854042188852,0.039123580673511446
643,-0.03552807032298782,-0.05472976631722613,0.0821496429263052
644,-0.03935259751449659,-0.057796209838970464,0.03490893136442686
645,-0.04161320111383422,-0.059508900242240634,0.1343264696299953
646,-0.04271040940254712,-0.060212323035512695,0.0661234513770736
647,-0.04294213226907492,-0.06017079876548522,0.11255510961248626
648,-0.042535524212987154,-0.05960418059381959,0.06420652842888877
649,-0.04160322329827354,-0.05863120929977812,0.05155379230464069
650,-0.04037062363012299,-0.057331429396784185,0.029523878233546037
651,-0.039042838849362105,-0.05587993037659095,0.10567085154699829
652,-0.03776518721206966,-0.05441387832724526,0.12464573638203266
653,-0.03662360697940717,-0.053015115449207395,0.09420238081421423
654,-0.03565066196775887,-0.05171270685332311,0.03635825373238304
655,-0.03482417070608186,-0.050482359222028914,0.08548783443116058
656,-0.03406227700438862,-0.04924432687901878,0.03905542953185401
657,-0.03319645383462275,-0.04784595646504533,0.09838343298084332
658,-0.03191636500212358,-0.046025973005073495,0.03509957026849993
659,-0.02990504868993008,-0.04345406279103349,0.03979345046669205
660,-0.026405946035505046,-0.0388339056198254,0.09875023027779223
661,-0.018857138153934156,-0.030345730557947852,0.049726322672502404
662,-0.005058045784160753,-0.016275266295213513,0.12266086889638159
663,0.016519983998831995,0.004984042987893055,0.11000848294056613
664,0.0467336777840251,0.03493103762021908,0.13300362287240305
665,0.08576795034777991,0.07466846798204377,0.1327639073562505
666,0.13312041780462863,0.12039608247576396,0.08774637794378046
667,0.18111068862264282,0.1660930537462522,0.029659070812289214
668,0.22061587470816918,0.20563323851977355,0.07655191381178168
669,0.2450698719012699,0.23280536003509772,0.051134253977466765
670,0.2504783220683102,0.24131683117939945,0.1105740306312059
671,0.23541861310197093,0.2270105798452455,0.06597438867795617
672,0.20118109599435297,0.1947052171239359,0.09166889638144567
673,0.15457997904201815,0.1511109266054854,0.03114016545058514
674,0.104823933358249,0.1025873521224742,0.06479437560821744
675,0.05874729015706756,0.05514620537416239,0.08395854130850793
676,0.020640879832637488,0.014449764060307624,0.08634908943972425
677,-0.007745105314106129,-0.014662768588968705,0.09573366683700951
678,-0.02694220545628441,-0.035302658772558185,0.04755886793165513
679,-0.04107138843130286,-0.054134208872143645,0.08354885759306044
680,-0.06318715395963398,-0.07845569807299121,0.06904241638524766
681,-0.10860104586352701,-0.11619938390941653,0.11871310277322665
682,-0.18497102952573102,-0.17593150226477072,0.06779766697043643
683,-0.2181656709923534,-0.24021714780473497,0.08993105257967944
684,-0.09268453208676336,-0.17751125739368562,0.11662744936231861
685,0.28836041211435787,0.10679850778014176,0.12037276255536333
686,0.8032525096468586,0.6120220194252425,0.10032906223215388
687,1.1036195098796429,1.0442481915847397,0.09592028047303573
688,0.8533172166155737,1.0117939409774708,0.10769884995532868
689,0.3027908194110774,0.5380747917505686,0.06795152752247414
690,-0.1625546135545951,-0.0010750929228864601,0.09714215639042446
691,-0.34506056013192826,-0.30064500122382193,0.11032719221735389
692,-0.3051256533219956,-0.32823608658222375,0.0829745874710909
693,-0.18644195160179594,-0.2220721093886953,0.10606245734219459
694,-0.10727866326746507,-0.12477747096534889,0.026262517576017066
695,-0.07561624388700999,-0.08109126168937772,0.028135137807992622
696,-0.06490932493898025,-0.06569251899949348,0.053128998274623564
697,-0.056276406336008944,-0.058770218083840406,0.099548353435656
698,-0.04522484799712146,-0.049840403577579434,0.08908537432859724
699,-0.02993549243600275,-0.036334816928228764,0.10501002215330364
700,-0.010034105416859685,-0.018850013250854922,0.0548486256558382
701,0.015364081699683793,0.003930272379815001,0.10970434405678414
702,0.04666362175211078,0.03250087236507584,0.10264773431633388
703,0.08368065070407521,0.06685959769077132,0.09714081012012739
704,0.12564288764441764,0.1065143512887582,0.06129309748420189
705,0.17120998107643448,0.15096048571943443,0.08784500018646413
706,0.21879386764849257,0.19765888767509818,0.059380451905403975
707,0.26505685486400815,0.24331232987949977,0.09998548148720457
708,0.30654066385873036,0.28491326564272207,0.031865249737878715
709,0.3403306154503161,0.31974168258044655,0.04222174957036286
710,0.3640268384715316,0.3453602130631843,0.07444470788784761
711,0.375743666606031,0.3596140317837791,0.0698286501828906
712,0.37410963838836964,0.36062967347897334,0.14240840345805378
713,0.3575146452107056,0.3467300095007598,0.10060183569493317
714,0.3272107740079869,0.31973304687811727,0.12877920211068375
715,0.28718321102490363,0.28287629889142624,0.07723402118438694
716,0.24100047354358028,0.2391869499645117,0.07255596415459428
717,0.191793819122037,0.1914819634293941,0.0913868967181562
718,0.14222726351832307,0.14235663550306818,0.08681027767634769
719,0.09450111961925564,0.09418595367855476,0.07485550513005829
720,0.050379113603042446,0.0491350050590501,0.10070610568644058
721,0.011189361464847777,0.009159351189867741,0.13745012013342509
722,-0.02217563098319002,-0.02410716351449259,0.09073013023373513
723,-0.04925896811196444,-0.05061121874999763,0.05007302123774267
724,-0.07008128690839273,-0.07122895642399209,0.06404627862543022
725,-0.08547677274929326,-0.0868116574362524,0.1697018305223583
726,-0.0965090242334684,-0.09817499850079058,-0.1124796528087024
727,-0.1041270916664756,-0.10609830798047849,0.3076908550187913
728,-0.10914691078145675,-0.11130390190282807,0.1518578024160379
729,-0.1122490189241591,-0.1144543871046638,-0.38562035018791246
730,-0.11399787925343963,-0.11617548031927451,0.5887994403841004
731,-0.11484296971264829,-0.11705642729544607,-0.03591286756843289
732,-0.11511878302962855,-0.11744296680807466,-0.41721277603389556
733,-0.11504482671671667,-0.11742030070275124,0.2754054962896344
734,-0.11465207706954081,-0.1170844546524297,0.6811283194081461
735,-0.11387376570185805,-0.11650436045140887,0.9643542536905304
736,-0.11298725638166356,-0.11572008186476729,-0.11444910697031256
737,-0.11219318491333276,-0.11474527898252601,0.9139880302393558
738,-0.11159473033822634,-0.1135934613382238,-0.3937505624158646
739,-0.11120121356689015,-0.11228927173435574,-0.7566234728582589
740,-0.1109170492293417,-0.11083384380439187,0.17884983374853056
741,-0.11054082521955594,-0.10920179198745332,0.18873893460737756
742,-0.1097653026954653,-0.1073190029992246,-0.13556636699753627
743,-0.10817741607895963,-0.10489469376645737,0.40513478477645826
744,-0.10525827305588589,-0.10127565758799979,-0.11908458883449688
745,-0.10038315457604939,-0.09543468799493322,-0.04777537739042485
746,-0.09285791422372874,-0.08597057875057128,-0.5954332800468992
747,-0.08004279725262045,-0.07110795228327726,-0.2846365210038034
748,-0.05911846204780366,-0.04868068121310868,0.7192113246367405
749,-0.028890223097171482,-0.01545239872854823,0.7047417120897159
750,0.010201891119288369,0.02698455577075707,-0.7641386868085978
751,0.056082845236263,0.07289600315204756,0.5054887392313455
752,0.10492012610443599,0.11661336272523486,0.4711570682854427
753,0.14849991848725558,0.15254807221955974,0.14606443063268973
754,0.1784562549884585,0.17519158778361602,0.35462442363370983
755,0.18947314923468755,0.17911524620715397,0.7721517582177413
756,0.17929965561637637,0.15965520678122164,-0.2266401240085616
757,0.14898427770131034,0.12138602599391887,-0.6571636235213061
758,0.10546669684654501,0.07419340169167431,0.5569148487147579
759,0.0570572941907758,0.025960101294731627,0.24234858202078033
760,0.010496525264196404,-0.017597008652462092,-0.17220335320643584
761,-0.0290577655951992,-0.052926425755281545,-0.054487272436981773
762,-0.05563769266253954,-0.07864201176894768,-0.03693404294697228
763,-0.07274519943775808,-0.09116458585794948,0.9314663737503315
764,-0.09162848473393873,-0.10024137375957713,-0.9334688474002979
765,-0.12021732980359427,-0.13610968547964772,1.0546177758307864
766,-0.16305489758335426,-0.20114225850003392,-0.5185391807586746
767,-0.22129773355419424,-0.2674988040353558,-0.3268560023426745
768,-0.28090891076385466,-0.268902284303413,0.8981850190130605
769,-0.1963014948275671,-0.061176046361384046,-0.620717030773257
770,0.14175730065606082,0.38897625319230084,0.9303916223562632
771,0.6560702554590351,0.8875626046150094,0.7291502562487299
772,1.0463188641019074,0.9956791203657672,-0.22181169282300256
773,0.9252160492313923,0.5887979625511187,-0.5481847713350567
774,0.39371869196411313,0.032665742865546674,0.2294553663486736
775,-0.11603533662557115,-0.3141400575229642,-0.26367096874549434
776,-0.3592187369816205,-0.3746887525662036,-0.7813423749472608
777,-0.3481208518829567,-0.2838302896936179,-0.4156840442335566
778,-0.23486474853294215,-0.18116085190372683,-0.6730872614107106
779,-0.14411153180651526,-0.12690540574258255,-0.8109686645666772
780,-0.10182200048419199,-0.10708042363666251,-0.20822648327657622
781,-0.08136633005000417,-0.09895725564540046,-0.15944658105656143
782,-0.07160172830503579,-0.09029921693648837,-0.8474798335464078
783,-0.0645151186741179,-0.07626027890065847,-0.3277260763692594
784,-0.05433572605280458,-0.05817900449544829,-0.3286255674593082
785,-0.037535076807369346,-0.035163167500247144,0.05810214842989448
786,-0.012826998774810677,-0.006319387094487211,-0.6387831273491219
787,0.018832378737156034,0.028460071538028493,0.9432244339366823
788,0.055246647728519976,0.06868575936067492,-0.24966299143671236
789,0.09702959633545817,0.11328553284895808,0.2317865703782514
790,0.14273359142702122,0.16102193217032876,0.21589204989266317
791,0.19029176042438628,0.2086391675047626,-0.12405954231832314
792,0.23732395981467733,0.2525682761025813,-0.806326570532232
793,0.2811367751509733,0.28974047442869977,1.1091769062548587
794,0.3187235210522912,0.3175871581626141,0.9368506874217575
795,0.3467647588335838,0.33403990219842145,0.8372483752681805
796,0.36234374062096797,0.33752992116723646,-0.27479718844617995
797,0.3645145017458209,0.3266743460284194,-0.5776238376838146
798,0.35331358186801476,0.3013780116845721,0.1690215473451174
799,0.32957016826712326,0.2654132122938137,0.422890455630384
800,0.29489189195527177,0.2224552268653857,-0.4983840137024118
801,0.2516543292341985,0.17573948551321053,0.09857751141392354
802,0.20300096275805388,0.12806156559614612,-0.253302256306626
803,0.1528270128219183,0.08177719171798634,-0.5186608181541373
804,0.10431697076883378,0.038802235727453324,0.134985682051367
805,0.05943688225214226,0.0006127167182280551,-0.42144255516787127
806,0.019797010939811756,-0.031755198971096736,0.7543726138706257
807,-0.013600288064291168,-0.05770442945569645,0.012863925897008776
808,-0.04036238362154023,-0.0772520712005709,0.46435256456520074
809,-0.06072161154576159,-0.0913628383124004,0.6577488984138125
810,-0.07552749784812675,-0.10108527488572853,1.2162199734802597
811,-0.08578393836302001,-0.10735258357403518,0.3375637975624834
812,-0.09230746682321078,-0.11098261761837457,0.6207457806856443
813,-0.09599772614941642,-0.11267788084737292,0.7626852988775549
814,-0.09762278473003091,-0.11302552767723233,-0.24108478496721752
815,-0.09781913642111997,-0.11249736311172778,-0.6052089426855278
816,-0.09709145761229614,-0.11144975810153401,0.7949700950609984
817,-0.09580698556163846,-0.11012169090000214,-0.5428759514745248
818,-0.09419496177644775,-0.1086122321433373,0.5397663427421108
819,-0.09229760453538988,-0.10693125134986535,0.3804825514210873
820,-0.0902368194296804,-0.1052301596417193,-0.7427746781952108
821,-0.08820569843913299,-0.10360861514996497,0.6097578890885819
822,-0.08632663882328104,-0.10209485013809919,-0.2615163062652618
823,-0.08465134312137422,-0.10064567100204613,1.295055750066481
824,-0.08316081915238098,-0.09914645827015998,-0.24171453984803612
825,-0.08176538001498757,-0.09741116660322414,0.03686502899889068
826,-0.08030464408759841,-0.0951823247944509,0.04872783288142676
827,-0.07854753502833611,-0.09213103576948221,0.12339796336210085
828,-0.07619193573638983,-0.08792288355066326,0.07628859484612088
829,-0.07285854776798946,-0.08175254310966833,0.04884821444858587
830,-0.06825847353272758,-0.0710689740277444,0.02217013864266771
831,-0.06080603383194515,-0.053736800844800744,0.07981701470945374
832,-0.04752861442092089,-0.028337461933041777,0.09296086548359776
833,-0.026425752850443917,0.005830790503034404,0.0911474503855799
834,0.0034510226263433606,0.04882797879867566,0.09486792466681444
835,0.0419981930539443,0.09897254706316716,0.05584922430230904
836,0.08809878392209462,0.14721757586066594,0.09989465352569327
837,0.13822895746070496,0.1850601755494148,0.05608595610926141
838,0.1831175404044531,0.20649932591597098,0.07018754188549362
839,0.2148044702159392,0.20805208919701024,0.06441438504561182
840,0.228093849085658,0.1887546544016492,0.061839299016256156
841,0.22056201628444128,0.15134533896857885,0.10301076561545253
842,0.19263069631904564,0.10492178177425651,0.07133997530049536
843,0.1504354540232455,0.05796282517197761,0.04301682832369735
844,0.10303436853056569,0.01644028538565425,0.07650341166151428
845,0.05749778476765036,-0.016181047490185577,0.08345316808180936
846,0.018747219692117827,-0.03890436440743405,0.05465683330521814
847,-0.010440303235525344,-0.05271918535182795,0.12131356754328257
848,-0.028765690319378655,-0.06724777752185708,0.07541245391670048
849,-0.04217614607865836,-0.09588780093928048,0.09718955204725536
850,-0.060814720960282204,-0.15323795771719978,0.1268070919034755
851,-0.09608810185064262,-0.2212089505203368,0.08216943414838938
852,-0.1619766244311883,-0.187640558594316,0.07222095782134713
853,-0.23844372003271577,0.060689617769129144,0.08380008625295754
854,-0.1471327796435625,0.5490314274223999,0.05753593243729388
855,0.19143032973648516,0.9892719136178668,0.07336147864135861
856,0.6974362353916846,0.9996241197652691,0.09251532352403002
857,1.0990673770598194,0.5339003403031805,0.13012750345010288
858,0.9993165444235481,-0.006223371664081762,0.1384767525534085
859,0.4781045869461177,-0.31896008850270197,0.14725061094215527
860,-0.04073035845726926,-0.37005826273880443,0.13148750249985086
861,-0.2980003626458382,-0.2691645897528787,0.0473427727542869
862,-0.297397302985028,-0.1608058034632556,0.0393139676987127
863,-0.19365150915413873,-0.10354432369995505,0.06438314397905044
864,-0.09774543563949228,-0.08235411128509297,0.11177639315075945
865,-0.0526630778403244,-0.07096079208823584,0.09550834580387192
866,-0.03665421715561467,-0.059465858114764375,0.06207966496637016
867,-0.027927411093519313,-0.045026835586170155,0.024292747804961
868,-0.01619995089362651,-0.026463785223121185,0.07360477955284837
869,-0.0006774543501949478,-0.003381721676311922,0.09923916034609404
870,0.019159852865390466,0.02505411084374726,0.04987321758526728
871,0.04433750112453557,0.059184552789288136,0.08705427047007468
872,0.07527433652091517,0.09873665315853454,0.12580185178402295
873,0.11200585685969623,0.14282366949568265,0.045297954165934594
874,0.15461393712535418,0.18994506789090582,0.0903290213458583
875,0.20228818331785745,0.23811371480327267,0.0721900682552812
876,0.2519278219739267,0.28490658715819034,0.09704918828176076
877,0.3005506987506729,0.3267326599001959,0.09916118055814582
878,0.34538743274221734,0.3605347203666681,0.05545998217891976
879,0.38389264830595954,0.38396720209719326,0.11406770523002996
880,0.4137701857986338,0.39537877695297835,0.1077368156093983
881,0.43294426624992505,0.39383320748046674,0.09191173545535064
882,0.439552697315082,0.3789453266899613,0.015601062556859259
883,0.43182730338406156,0.35103414242077247,0.0752501918893205
884,0.4096200121596396,0.31347125958475486,0.050155502758447656
885,0.37630070150131295,0.2696776939596164,0.046813179040257454
886,0.33524463276210553,0.22267163915480231,0.036663857165720945
887,0.28950517598960235,0.17506846661148615,0.08061907606637422
888,0.24181380992598225,0.1290807256026043,0.025900950773210203
889,0.19457264318564707,0.08652274588718196,0.07202509336833435
890,0.14983197778828533,0.04882444567350419,0.09200173492607758
891,0.10931274562583267,0.017017523655970816,0.12510666959952882
892,0.07441398728479438,-0.008254815807353637,0.08844259256535673
893,0.04617934083288371,-0.027330254840038357,0.10207278583955522
894,0.02453137888001059,-0.04122537436508315,0.042310398774838734
895,0.008470807818920493,-0.05087636347607932,0.07300057178035341
896,-0.002964416602177402,-0.05712304740287434,0.08850741105541264
897,-0.010655194936749653,-0.06070888751158066,0.10692616750662891
898,-0.015401447879588474,-0.06228092092332208,0.05360488236174417
899,-0.01791680891624348,-0.06238971771214795,0.12740727056954496
900,-0.018802799662158757,-0.06149038154914839,0.08839442067660229
901,-0.018569572486765724,-0.05994197487878616,0.052720959329478526
902,-0.01764613012984374,-0.058007196468938135,0.08442601740044015
903,-0.016370142837127392,-0.0558523812237414,0.03545065119573803
904,-0.014867902533287947,-0.053547500183593055,0.09574984219853855
905,-0.013213904830731708,-0.05106616052515098,0.06313355437284883
906,-0.011473349970217185,-0.04813958739599886,0.11425166608081173
907,-0.009684564868106678,-0.044753544551978566,0.07926496669432115
908,-0.007859003116366533,-0.041370514280887255,0.0906939024155135
909,-0.005983372989042845,-0.038237550963136996,0.03038967320950734
910,-0.004032350018674473,-0.035408521936047405,0.0534021136439368
911,-0.001960056213158472,-0.032721051926203615,0.11559777075647941
912,0.00030623639139570565,-0.02977948609864794,0.09775402956358309
913,0.002827235449059097,-0.02595482686930424,0.06219479954742109
914,0.005826458935267736,-0.020384733904974632,0.09958301583991554
915,0.010299267244732005,-0.0119735241233416,0.05941203968443312
916,0.017486202540365217,0.000607828307032334,0.04755988529422621
917,0.02880923636289778,0.018921691966705168,0.06985245469415459
918,0.045871824260131484,0.044763832938185734,0.08853458994591266
919,0.07045822870876037,0.08109109498505186,0.09357382216143285
920,0.1047261017666486,0.12614599013310657,0.08689584361440411
921,0.14994857845952844,0.17314616081285478,0.12254383522378687
922,0.19955245118947068,0.21600282092165313,0.07164995568277825
923,0.24645504629286125,0.24937856144260026,0.019436839127059898
924,0.2845240961783991,0.26868735044454584,0.07137659575947676
925,0.3085777393270973,0.27009453308208964,0.11357841570828968
926,0.3143845202922828,0.25059215727444323,0.11220779954038657
927,0.2987032310181226,0.21278385091177257,0.11802918560646986
928,0.26346014839440335,0.1661786577588082,0.0639163964595542
929,0.21757012574826073,0.11880643293552431,0.06776465132253896
930,0.16894243576725437,0.07640263379877746,0.10502356555053524
931,0.12372546475381643,0.04243909346225867,0.06981766602925069
932,0.08628371513690207,0.01819412751063405,0.09285714502779374
933,0.058386789218928564,0.002737744803266003,0.06721010058870149
934,0.03991625218895299,-0.008534727376326977,0.0983803981654953
935,0.026996464543877836,-0.02728574931188942,0.09057686016963142
936,0.0071624542239118625,-0.07258855284142361,0.12067921835999389
937,-0.03935942176009248,-0.14367487917885344,0.05949311737587227
938,-0.11243253165878339,-0.17195368408176454,0.12227977105851613
939,-0.14588365236635173,-0.04220292154235784,0.0958523698186078
940,-0.01825682926469495,0.335947019066686,0.029940295396659267
941,0.36407272048282385,0.8607231824741045,0.13549165714947417
942,0.8959482671660516,1.1653156883945732,0.0814058074084632
943,1.1971705448650853,0.9490313592766478,0.03683410944461242
944,0.9661724677497866,0.40051936610568895,0.10030597088693753
945,0.4087778678629043,-0.08030232121110324,0.07477533054201123
946,-0.0698034603546197,-0.28260485662314905,0.04378839531337394
947,-0.274704608005077,-0.2619985272671473,0.09776513598649188
948,-0.24280478953981005,-0.16355431805619938,0.06968640940198388
949,-0.12983938819912985,-0.07674156000238876,0.08195279698477842
950,-0.04216898115051285,-0.03407439486811139,0.10321389393347226
951,-0.0031015196628559312,-0.015174884774251657,0.0729912085769732
952,0.012834344450993579,-0.0028272604855355673,0.08675957414436036
953,0.019879263166753144,0.007969509591703946,0.07499283004011244
954,0.02722203290327898,0.020965703170437455,0.14101181196046225
955,0.04001235913916413,0.038660844082929115,0.0867934617363911
956,0.05936085641274548,0.06230370228074973,0.11740002748797959
957,0.08323752178172664,0.09189229383476862,0.12512215196261245
958,0.11263486113998024,0.1264362114296427,0.10695805644249573
959,0.14808876845296498,0.16595269455135314,0.04010896999525609
960,0.18918076142356585,0.20942570848165507,0.037245796276062615
961,0.2347758681572668,0.25526139203074566,0.11812029241719563
962,0.2830878130666942,0.3015018935061402,0.1013324743676088
963,0.33201935414986183,0.34582097875867723,0.11852935729669305
964,0.3786636789529638,0.38552403118256906,0.0867092272159882
965,0.4192543488058578,0.41754805171536774,0.1050768768435502
966,0.4507759729529987,0.43899122645363836,0.0867401076891211
967,0.4709994887354106,0.44837411690731266,0.11862960757838002
968,0.47848216159068796,0.4450699781066609,0.09893622179513721
969,0.4725680390590198,0.4292432352868084,0.11687225605978654
970,0.45339764453643927,0.40182646905141506,0.10525618296726097
971,0.4215982225701484,0.36450120233713584,0.12965483944498726
972,0.38039220249413386,0.31973587597215386,0.06458127553645766
973,0.33340132459614874,0.2707903714689363,0.056918750462114434
974,0.28379782447080787,0.22131042727833197,0.08815638689372791
975,0.23430443301958628,0.17351758665803757,0.13411368894230055
976,0.18719437645082063,0.12937210797881651,0.09261437128440632
977,0.14429137627970795,0.09033167248981207,0.0921205340094863
978,0.10696964932830634,0.05729045151019045,0.06285159694238299
979,0.07615425249438453,0.030579062377339223,0.030104919752285946
980,0.052341420961016065,0.009964278606486158,0.10161408332977205
981,0.03479893381231981,-0.005349286922871817,0.07863913120258306
982,0.02240112779789104,-0.016313544399506667,0.07052678592908308
983,0.01411822696505428,-0.02364529658829984,0.08424277479427221
984,0.009016342658865369,-0.02819824647061145,0.04751570184173896
985,0.006257473522109652,-0.03070938008344818,0.13046893428300346
986,0.005099505495303001,-0.03179838907293721,0.12366616219708473
987,0.0048962118166913406,-0.031967670694326586,0.10680904865480442
988,0.005097253022251391,-0.031602327811984854,0.10557670484823954
989,0.005248210002933186,-0.030970162053408728,0.031686969955148615
990,0.00504754163564392,-0.030199367533622824,0.04747340178379918
991,0.00446350825439472,-0.02932807783721411,0.10575911047320077
992,0.0035939119959538315,-0.02847543355596995,0.11164340276313973
993,0.002601131787124202,-0.027720731864267132,0.0721906126754229
994,0.0015364685780598682,-0.027092696275588087,0.12700144983542438
995,0.0004656695987201426,-0.0265694766425201,0.0848953662242278
996,-0.00048356131473324617,-0.0260786491567569,0.04961652533994575
997,-0.0011215637199332678,-0.02549721634909651,0.09792966893777208
998,-0.0011967205683101972,-0.02465160708944298,0.09993455094514903
999,-0.0003954582050893366,-0.023317676586805565,0.1117266328403825
