,ecg1,ecg2,ecg3,ecg4,emg1,emg2,emg3,emg4
0,0.32362853478794684,0.38046801382474726,1.1422781162403233,0.2667005790055579,0.09804052305159953,0.08019337511879941,0.059705882799608374,0.031432011392310284
1,-0.19578814340886086,-0.11957026910892238,0.6832688089537683,5.456635100076796,0.05349196818315145,0.040022856493064966,0.041119882791303686,0.05126253382897626
2,-0.04170963941888878,0.030996420871220065,0.808253975037328,1.2742046885821492,0.06184225298947299,0.11499828550804916,0.067527917298856,0.0457524173790988
3,-0.07860950514602044,-0.012505120039941364,0.8121596148546014,0.12264373103374489,0.05955723557034181,0.07470015777125563,0.06787977068737537,0.11801672412201106
4,-0.20235472331241103,-0.1275234735543419,0.6864084532284046,0.01400417570905914,0.11387702314089009,0.03786458349646843,0.05640441199010007,0.09105070809807629
5,-0.19783501327261255,-0.12259826412881575,0.686335097152316,0.0010816649089504683,0.13254911681208548,0.08372259829807496,0.12066064638989374,0.08484840001434005
6,-0.17129333518090312,-0.09292029970833854,0.698906442654028,-5.0743518731131364e-08,0.041130169871498236,0.08193153650590407,0.09358276992116435,0.058936918533072855
7,-0.08178112589650849,-0.022622796588985417,0.8188532769514986,-1.6692126175253983e-05,0.042530931664516256,0.05459009742991974,0.08425770194953602,0.10724532899024411
8,-0.254244525197728,-0.18085610636635532,0.7051531874209233,-6.15630042906532e-06,0.06410833516831607,0.06908656475455549,0.0910861908474897,0.05785633584930817
9,-0.25242516677849014,-0.15659169959882413,0.8359809951729834,3.5024468659500796,0.12538741766123956,0.10564234581570682,0.07568636313700405,0.09536244812415036
10,-0.1078359631929246,-0.03226650084037158,0.7289397377418959,-2.50240058838563,0.06445804686804953,0.1174328323756649,0.12336167793793279,0.08478741110589383
11,0.03133927994284458,0.09980536342039514,0.8761669870797483,-0.027565758223706695,0.04436294896634801,0.07892095070343526,0.06101357042057761,0.1245271104155726
12,-0.1464746300235314,-0.07422651795557561,0.8137377775977378,0.0354504245760158,0.08333312624787333,0.039996156147883294,0.06912271813656967,0.05124342105559318
13,-0.1726006162267494,-0.10148577443360485,0.7156480944405629,0.0030613627023681673,0.0704550589340552,0.05521852101587206,0.07223518466083016,0.09140032109448414
14,-0.16412751366996844,-0.09347644628177021,0.7186813355091012,-0.0001335304585332837,0.07743909145609625,0.06610221409483481,0.06077662373461536,0.11360692377824506
15,-0.04531566873585152,0.012552049091546169,0.7346886566335283,1.3931716028207887e-06,0.101467520330782,0.04370945815680275,0.07170353855349114,0.07974634307149647
16,-0.15121578055887436,-0.0737577521685655,0.8356247519120946,-8.85506980746712e-07,0.04599940295605475,0.08733352464351415,0.09703588953422822,0.1073357665905754
17,0.25615762968122713,0.4324291818076327,0.6983224502087425,0.046052211665659565,0.1175062483965491,0.06487683583177548,0.07449604426067244,0.07194513661681012
18,-0.16077586622977563,-0.09182795012745992,0.6327839270255918,6.881621609852592,0.0620194763014081,0.044282132929493824,0.1210134721618471,0.07990282471731881
19,-0.0015118196487289293,0.04373772806744264,0.7475299895243056,-0.17864905461003347,0.11598160429175877,0.07673313539331364,0.06171287425413672,0.08063681997868234
20,-0.05734299339377663,0.048319276894497,0.8932248732992815,-0.29197813171033715,0.10775713550624964,0.09876682546555673,0.07821179957289515,0.020341833117585785
21,-0.18458829118789905,-0.10589977090951819,0.7659428508209053,-0.05104844506863752,0.13357511445313378,0.13753597181296318,0.03331800592920877,0.046081557471562035
22,-0.18694224232006426,-0.11408625094239278,0.70498226291157,-0.001139209469369121,0.11540056275835932,0.06670607576992023,0.11730366056779594,0.0481476489315876
23,-0.1726990275607547,-0.10838455320481533,0.706464969872089,3.617052092624116e-05,0.0652975747306325,0.051978040415385854,0.08489602911671794,0.06517831688642639
24,-0.06670632851997982,0.019452536055585,0.7523430392145546,-9.164339344839552e-08,0.1157437331207951,0.054588649952320815,0.056340612082923104,0.04911470510578547
25,-0.23079085960262619,-0.117721076773526,0.7484670161634149,0.0008798975161013803,0.06471761658879616,0.10774690059039703,0.05539236835923759,0.03272900123596729
26,-0.32861837807084204,0.013913114027416573,0.7677350463508935,1.8916527996846189,0.06463897352924772,0.08906465246650586,0.1256454660502471,0.04947499789334521
27,-0.15828346024792717,-0.11185260594793833,0.6974108315641901,-0.26402398158601365,0.049762967266227594,0.11061317304345802,0.07122982103113747,0.10807591327492148
28,0.009407877436548917,0.050325075823823284,0.7905593874991143,0.9236652149303128,0.05282218781702643,0.13167103991121035,0.10828912162849434,0.1002322649866258
29,-0.14725724994911704,-0.05308169026193882,0.8333870823481023,0.24207016335002413,0.08512570600274078,0.04007744966279994,0.10552677259361636,0.0858740608271323
30,-0.22152664739679034,-0.15162784426627932,0.6895505761456654,0.0197731935859717,0.1049161887209908,0.12969310291623287,0.09521985766112968,0.0613216053828994
31,-0.2201941546627675,-0.15147605421678093,0.6795747750660964,0.00030374326612598137,0.12849623265211885,0.11615224080257275,0.08363479503218464,0.07412401123033815
32,-0.1770453253823206,-0.12152820846338336,0.6861354601681936,6.35465961482115e-08,0.020795197495399247,0.10282575307999911,0.09736816004901026,0.12909185914414684
33,-0.14768120305710697,-0.06780214897216275,0.7895445574641781,6.320252843690339e-05,0.07294282140958946,0.0890846852429712,0.11533382599724849,0.1228845060236608
34,-0.2820911082315546,-0.22605998549398254,0.6604793795775502,9.827859502995551e-05,0.10366501623785364,0.030155994083200764,0.10761069033108776,0.12169813929743728
35,-0.2643648958624658,-0.19939788311885312,0.5710833284405987,6.655022640219752,0.09195959926696065,0.05780267942106171,0.04310234182551216,0.10236083854609022
36,-0.15202946510327786,-0.08312332510880871,0.7105589979431192,-1.9440257205852174,0.09824478317599918,0.08472070721078977,0.04116290045659864,0.12876415071639025
37,-0.03329647382361628,0.03053857055214443,0.8523505367227068,-0.7068515938270102,0.08071348632993634,0.10462309152311618,0.12340757347016132,0.02275917332132228
38,-0.2149799035117422,-0.14457068074668084,0.7132178159259556,-0.10704754005803742,0.06750286473799375,0.14050436803292563,0.03274499793213203,0.07691923083974658
39,-0.2361547751086319,-0.16247331882555874,0.6705344475719074,-0.006116200893607508,0.029100719127738234,0.09297260964557909,0.0595640940880772,0.10056733239356865
40,-0.22689629158189295,-0.1528213865131875,0.6773317612531403,1.2626716184556086e-06,0.05004231156941115,0.015131503133672642,0.07240792705471638,0.054829612178483894
41,-0.10292836450030013,-0.02505174778976965,0.7533100526793869,3.851475911330999e-06,0.053791113174151646,0.06945126022872525,0.04367858687845567,0.08175364337115043
42,-0.20812356559196807,-0.14083841418087567,0.7077870426334151,8.730077761680073e-06,0.11063566055882376,0.10449784198161347,0.06017965254118682,0.048066769011556605
43,0.2570862519691185,0.0284853940000106,1.0767357997196338,0.8324229865032998,0.09581304758542898,0.08778967845821023,0.13678316812476132,0.03900791268106964
44,-0.1768005573371239,-0.12099341562192073,0.6903411227530839,2.7748160605375047,0.0953454411548376,0.0627407463482263,0.0471228101597734,0.04282244215156123
45,-0.010194459160441427,0.0498360033612697,0.8089273141894228,1.5506161318687663,0.0792903553441146,0.06113319618630711,0.08240324631994293,0.05371967938867211
46,-0.09319334793376938,-0.04691975656765257,0.8245322972224721,0.33277768055728435,0.08105753407864862,0.040965671428986196,0.10763501817000472,0.08431093908140873
47,-0.1875868959914311,-0.13307422103464422,0.6981588119347631,0.032837128494488,0.07657156963848862,0.07800184821353803,0.0490158074067559,0.0938187909959306
48,-0.1802394158576952,-0.12410293738336353,0.6985144351794662,0.000927863323066019,0.05123485729318482,0.09925994198771101,0.051697612826828464,0.10087570885135143
49,-0.13242096148688776,-0.08123948380531865,0.7126000435968481,-9.346323236726864e-06,0.10566570962407605,0.09643803659106395,0.06966471136515909,0.048509983406822145
50,-0.1106518792632149,-0.03885593095120771,0.8260769735722643,7.454085051256941e-07,0.06539546517512214,0.1443408178591471,0.0418678781108745,0.1093474876424329
51,-0.08659861738120234,-0.1481978175136598,0.7059851392926774,-0.0032969707023326653,0.10087136460154945,0.10918512811997493,0.058977932563767085,0.12791109241135604
52,-0.16716173932870318,-0.13151815696849378,0.6580755353398023,5.296267695607422,0.09852644821545825,0.11263373245243802,0.10692570330416981,0.05786597106414144
53,-0.051728517852944245,-0.021545639946059736,0.7476875037060108,-2.9631208201167643,0.0632253796332953,0.12355927703504875,0.09423178634069042,0.05116453628334238
54,0.004837114683115207,0.10185394533058556,0.8969925665007229,-0.7191633195459427,0.06831630354820274,0.1176490102418274,0.0747874282515163,0.04571327535556563
55,-0.15834164643859944,-0.07526363348885712,0.7779889643412049,-0.08946498242609846,0.06903587238113396,0.12148673848071752,0.09025509044800639,0.06682398582326181
56,-0.16570313502525882,-0.10306448205124469,0.7175453655124612,-0.006925844982766102,0.06260628548155608,0.08640693506811857,0.07718685112456584,0.11327520332110938
57,-0.1553576592998632,-0.09666641747808835,0.722027791284919,-0.00015032846133578297,0.09112776507269293,0.05015672177304121,0.1095835694383795,0.09867626862921985
58,-0.03146822211471295,0.004128082059941418,0.7693573167550981,2.7285736162536026e-08,0.08646083845318857,0.08405055871476576,0.103156357246927,0.12094576854784334
59,-0.185788030883574,-0.07636610071490979,0.7697495019440094,-0.000236983732859142,0.03072616268252835,0.0529715843922176,0.0878778764593706,0.06941682229113884
60,-0.2865851578087264,0.39131408469193474,0.7892897745822073,0.2727730340257337,0.051036632771231334,0.1164964977221887,0.054399307796351624,0.06755060165154414
61,-0.12384191149527474,-0.09410981153241438,0.72081761695105,5.418366599322337,0.12105200419036033,0.09824564311887891,0.0929479814599572,0.1196210707356849
62,0.043374675471466895,0.03421534092174511,0.814504901103409,1.289332245197628,0.12889501860639938,0.02338768681187666,0.08754177194513328,0.05645647418359154
63,-0.11417586389695694,0.0433754006049501,0.8599355400836722,0.12827589684994267,0.10064855234596781,0.05701106399753282,0.09299845345885227,0.0653588590328155
64,-0.18649843969015775,-0.11263552148509415,0.7141290873195233,0.01475456864952924,0.05867402434716396,0.11673301434267344,0.061653916181335595,0.08394351465638594
65,-0.18645326967202822,-0.12262302952857296,0.7036380511307531,0.0010926235978771042,0.09492432314506646,0.1420907650774367,0.05304967943028479,0.09583347116853004
66,-0.13729803716444894,-0.11714758499727917,0.708157099067389,-5.500002285843404e-07,0.08612174582729862,0.12392131274995831,0.09571798060343023,0.0738406419025982
67,-0.13250254663057914,0.007998067402004316,0.8108548705919184,-1.6850406061828764e-05,0.03602932486912368,0.08614853802799707,0.08351031753486969,0.12205407733767391
68,-0.18432099588858683,-0.13374197007748595,0.6800751092482754,-5.306989362383155e-05,0.09239622997904308,0.0643003064843426,0.07007626633743003,0.025563032377713207
69,-0.22195324135770272,-0.11345150048056385,0.5886302567533789,3.5321547899103094,0.09271396440395419,0.07972085284691587,0.08424844238122274,0.06604214751787964
70,-0.12175187329226272,-0.11345788525031497,0.7250881143389943,-2.5256776426894416,0.09815332696406989,0.037889146995795785,0.06632851116298814,0.13486526077447214
71,-0.012530986296338531,0.0507244476042189,0.8612886700184282,-0.04289890962857366,0.11603752681971204,0.08890479305784219,0.09085786560643952,0.09453404294596551
72,-0.20050717999416995,-0.08268603098709898,0.7164440970177363,0.032396157724618506,0.10344697209242959,0.05563247595828632,0.08396569508053586,0.06559523058525793
73,-0.22956736361169944,-0.15677309922256752,0.6735646975313104,0.002821817408781452,0.11730013750461918,0.043633938708487446,0.09596985444587047,0.07009504047799217
74,-0.2249713194003301,-0.15399578841427816,0.6767432446235803,-0.00013724547038952923,0.09583537981229964,0.07552259564302527,0.09571976029820425,0.06341809899988608
75,-0.1178914586014922,-0.09651388966506708,0.7570428692455232,1.3558135664368237e-06,0.07850884681306024,0.04644501633963394,0.0996478531173084,0.09006186483564653
76,-0.20605445272594633,-0.10778212881555788,0.6931071960971905,-4.265446587526724e-06,0.09752009824595749,0.1065358130876025,0.08183174181869052,0.05961141259071209
77,0.2962011358766119,0.040188332785489556,1.1279203831820857,0.04787512265032502,0.09219645586195295,0.11573004892845994,0.1137992694147764,0.0397367633909196
78,-0.2076663640363329,-0.15021795774587196,0.6763930690328989,6.8713809851535,0.08036562371025413,0.07076611546884219,0.05496050630978326,0.059461231310978364
79,-0.06500513827080884,-0.03170281376778983,0.8037955964551963,-0.14855520847288312,0.04939804880062079,0.11058659020308977,0.0518596175417725,0.06654732984174812
80,-0.07285034279614272,0.004048061874089293,0.7892200779955542,-0.28419566617226955,0.05732703367603241,0.10646051146523901,0.05316508800699122,0.059140226790504374
81,-0.21418847206918737,-0.1453237385861874,0.6736508606866237,-0.04983065275161853,0.06046706202425708,0.11295295718873813,0.06304516700961058,0.12626053332801535
82,-0.21352958569443528,-0.14660864282536656,0.6758884919356948,-0.0010706463792169284,0.060130748320220674,0.09501138845767414,0.07799517611712263,0.056860398888727855
83,-0.19525691211419569,-0.13065398613921986,0.6919547899278987,3.580190225502222e-05,0.046054245719742946,0.07996373475429983,0.04994959810266063,0.10443735299973601
84,-0.07572511232817947,-0.0111624505780058,0.796246286426603,-3.256368972781977e-07,0.09226710441236484,0.10224753438738673,0.09756426614354434,0.11658080652987107
85,-0.23947745948942273,-0.16056700783909297,0.6675360817991808,0.0008878785957207103,0.02628685319506662,0.07531543123789504,0.12654901582689232,0.016227054386850296
86,-0.3252125258477483,-0.24690602160284383,0.5884515876453987,1.914596462614805,0.03839496250955168,0.08995710954546043,0.11165550748352321,0.047178896899815755
87,-0.1492751565964504,-0.07314599217072565,0.7377596680403254,-0.31170548655964,0.08120069317637925,0.09587349886096293,0.12820781018712246,0.06340290905972304
88,0.01869281816966417,0.09056876933565677,0.8889224285489489,0.908793811692002,0.07814735704165836,0.14616333490840386,0.05605813302999827,0.08945805060914998
89,-0.14565694523106276,-0.06781663603038746,0.7659421301645076,0.2388850842082991,0.08548229155855581,0.11345149587606684,0.06099887769320821,0.06142717261964477
90,-0.1877291926652856,-0.11401223142154265,0.7081334030543337,0.01947158577652779,0.06524411114540864,0.06619892676620677,0.05178079014000873,0.09091182576565625
91,-0.177839550620691,-0.10473077963902044,0.7155842402049383,0.00029389809953560633,0.06910275399940624,0.12164540262402652,0.01509237576125156,0.11535636198207977
92,-0.07999996041605423,-0.02355122360509687,0.7570132211398056,1.793104849503507e-07,0.0733409423803604,0.042106217026053674,0.01009589992199723,0.10044683035396809
93,-0.14772087481666085,-0.06304621881238348,0.7877454366482562,6.377126017319132e-05,0.11388879083506698,0.0466514908491186,0.05407791562980498,0.050380730777552014
94,0.3490253256383251,0.2294850488475505,0.6693907703690564,0.0002760076041376695,0.04839740743619736,0.08925928837728692,0.04592566192915652,0.051176747233941326
95,-0.1707315701263842,-0.09609107900304054,0.692860452155125,6.670283394044464,0.053672675029545695,0.06700534481363309,0.037781919059828376,0.07944643309749644
96,-0.02576737229078535,0.0233515756458203,0.7919694839700674,-1.918111515346572,0.09358702896861804,0.11630701424045194,0.09760905642262901,0.0243670808002946
97,-0.033922917805545294,0.06839283205148627,0.9037841273234722,-0.7019539444030136,0.08622036387742121,0.08343394285284343,0.06122575479191084,0.05931408546899037
98,-0.17832023029471145,-0.09565420029228844,0.7460688663042859,-0.10658008472754946,0.03557192766166483,0.0563895489656995,0.11680635704259391,0.13637120998805247
99,-0.18154131487299946,-0.1056648443190879,0.7181789513520599,-0.0060426466776630685,0.08103771915727812,0.05374146340828143,0.0824187920516334,0.060355200123672
100,-0.16923834824974995,-0.09923365213807461,0.7216861552110033,3.1109918678898477e-06,0.0810768061670436,0.06126435838037515,0.08623498090275251,0.06081560230358372
101,-0.04977411377098517,0.028621113373681395,0.8058834918797987,3.89911614047989e-06,0.0855290876231745,0.08242593894545357,0.10095462830247372,0.03029153103677241
102,-0.2081292266721722,-0.10498061429682709,0.7371526607119173,2.1495069670148618e-05,0.08774477157818507,0.08674678623965316,0.0621953848118507,0.05871501427798999
103,-0.30617880417502685,0.02589803606235247,1.1307938955258878,0.845583653830851,0.10675207876659949,0.06664593407725077,0.07548156070386106,0.06462457676259178
104,-0.15281699955689626,-0.0895625910780628,0.7218038730776367,2.7243687536706727,0.07140175330577327,0.06274326787824334,0.08616707923245027,0.06705523739547375
105,0.017982479063789192,0.07221964442920559,0.8342612371422434,1.5458745095773323,0.09761650280566729,0.05541506728833914,0.1332753758361312,0.07617292500278808
106,-0.12741111984687303,-0.03921635526685979,0.8319324076624269,0.3335377948414432,0.09711582243157482,0.08056814073406308,0.09353963658135356,0.06448772098118745
107,-0.2111853509320583,-0.1328241742599412,0.7006601389361499,0.03278585436319834,0.030892199455253812,0.09204011359798557,0.11525784469302745,0.10116500463926412
108,-0.21108655910424545,-0.13341846576323046,0.6938912150004443,0.000917792352199092,0.06705323112038153,0.10284063427166927,0.06960686583609449,0.12945644869063447
109,-0.17652623462470976,-0.09876723571255963,0.7005959983269955,-9.242612022185034e-06,0.07130970187924622,0.07523454387192698,0.07526858470660813,0.09958784888623533
110,-0.1275423494169416,-0.0673618331192844,0.7995124604253562,1.662606789439775e-06,0.0745393214027634,0.13118674383478698,0.055496615963104054,0.06369596804561055
111,-0.2996639303976081,-0.17752795547746233,0.6647473263633888,-0.003325943082864708,0.11446120596784934,0.041183563571593064,0.11847401648316341,0.04443379653980889
112,-0.2898549476726109,-0.1634831618538038,0.5813497667837303,5.324159866985618,0.11020708855555374,0.09937190090081631,0.12730104371324108,0.02752873937014543
113,-0.16063424577788826,-0.06015818856110727,0.7163834761146403,-2.956314936675845,0.09600705012765585,0.09542831444761425,0.13419944555020238,0.09481113303931976
114,-0.016690330438676848,0.029632018656108594,0.8584350766909655,-0.7247374735285381,0.028387487732999612,0.08792365712265504,0.06594793597613645,0.08726074554970067
115,-0.19951466537792167,-0.1433998013753553,0.7209637763236346,-0.09055667760359246,0.11035299093986231,0.11984634798342175,0.06732234173176377,0.06753676439565995
116,-0.23784866991511128,-0.15903967765840027,0.6701764855491864,-0.006994417733627506,0.07779682185117372,0.0507171017609655,0.03647007079921404,0.054714661998628636
117,-0.23137992398332652,-0.1515926201607105,0.6746403636820616,-0.00014812470060618978,0.07506108286437159,0.054072033681448244,0.05209564771951307,0.08975308222624064
118,-0.14107382519478873,-0.02303999458946082,0.7343807493165665,5.8283902307060246e-08,0.0713082459238485,0.045723089763680495,0.1006873948125943,0.04353374443989968
119,-0.19583880502793352,-0.15115789411486186,0.7148747791082574,-0.00023904588704292497,0.03433599073938627,0.08834973843577221,0.13973289324597085,0.02723813763846394
120,0.14772471132232512,-0.0882014190607252,0.8694585381181831,0.2789388789560136,0.11125406285990559,0.0672828706932018,0.05617559495800253,0.0986478454458804
121,-0.20306170007919705,-0.12354797424551917,0.6816028323040378,5.381968595308577,0.08601167128588505,0.07180822474035789,0.06134000851921952,0.09045521335035205
122,-0.06963626950953161,0.04776941888723707,0.7813187590682874,1.3040544032272205,0.02706686330555162,0.1236642829104097,0.07743319235909858,0.12083056505842338
123,-0.05482132257052463,-0.06042191873645508,0.8420317765731445,0.1338495187114959,0.10281978373796635,0.09605021204644687,0.08080643505590607,0.07248280235461171
124,-0.19994385608452764,-0.1429164784988496,0.6970905394696659,0.015487288387930925,0.02797791269685392,0.02872095031260241,0.10197639686781683,0.14037968575295995
125,-0.19891902181679402,-0.13426019099775927,0.6893077140793008,0.0011029294096954478,0.060051166162790666,0.0931748600148697,0.01959740145469375,0.07250919199378
126,-0.18043941659178028,-0.09234955910288972,0.6998809601800527,-1.0345001013316298e-06,0.1452001755349179,0.05574603333689128,0.07801871479685421,0.058094616146452914
127,-0.06516797728014495,-0.04485571857183279,0.8148423247659816,-1.6999116755700578e-05,0.060300426341744956,0.12505648718704332,0.06277218743772127,0.027114266477626926
128,-0.22405252590112512,-0.17339100801214452,0.7147508176218714,-0.0001012544250312994,0.04164718340387846,0.08418266777320724,0.1039334858284928,0.10296143273318636
129,-0.2971849049912758,-0.15210443868655144,1.0402173849428333,3.5619038153217626,0.11422114845303759,0.061896855586113145,0.06365165188416323,0.0707557901060975
130,-0.12153204734075695,-0.03495577775659753,0.7301361165738053,-2.548372202082839,0.06041474382348429,0.080520505195478,0.05117227789786515,0.10094305615060523
131,0.034809220408647756,0.10143504649763224,0.8710383460700294,-0.05815481665318415,0.04059573257908554,0.1205242400352539,0.0855026354278017,0.12632739725782505
132,-0.13875417087944225,-0.07398496789569242,0.8224394176596402,0.029377296246251242,0.11319265217689517,0.08069303808904604,0.106496033685952,0.12846642129140926
133,-0.17310351340791444,-0.10607743793170221,0.7200545199626259,0.0025842078220871503,0.08224066720116079,0.06564303389713057,0.07969099542026598,0.10391627082690734
134,-0.16493463716703316,-0.0979244800425434,0.7225037401251976,-0.0001408116908859942,0.10169488866662836,0.06599701035730886,0.054633083343903946,0.05829162550019719
135,-0.05234010181957188,-0.007903422301693275,0.7396642719569958,1.317752997142533e-06,0.06463345874426378,0.05068634864079637,0.0443350520434633,0.10067638332745445
136,-0.14770893773245392,-0.06328235569240798,0.829770071464338,-7.736153273385483e-06,0.09434837661544446,0.10574488549912346,0.057002523174892954,0.1191362768768285
137,0.2862565530353651,0.2557872944863673,0.6914942043931024,0.04974775730042085,0.0914595902981308,0.04268537775660833,0.038548198610265094,0.04340618379045181
138,-0.16172919325659604,-0.07084482785234869,0.6130013379107752,6.860612579486279,0.08704673446458479,0.07458897987070166,0.04129658096453672,0.09756868944010351
139,-0.002506788474029964,0.04165594986804377,0.7615557740882822,-0.11855437969003259,0.12829501980728825,0.07152570966321821,0.09048692470875692,0.04350232874361778
140,-0.06270180553390547,0.09154492345811999,0.8980591490318258,-0.2764276382621339,0.048313229834243146,0.07620643041339047,0.05457450367777532,0.10888934055217772
141,-0.18448936111159112,-0.08110045527087545,0.7517118376067465,-0.04861066290558104,0.10238593583896842,0.10251282190701014,0.08592074431363975,0.039199563005730576
142,-0.18568856193995664,-0.09703689815910987,0.7088687840495173,-0.0010033494836814382,0.06626455121073617,0.11148961039964159,0.10159509703628515,0.06217523637482745
143,-0.16641372287313097,-0.09442898073314054,0.7107222988109526,3.541392048755213e-05,0.029842575775555907,0.0760985704155434,0.09137412617883489,0.10034845190355379
144,-0.08226314162620207,0.028892630532915853,0.7841007915797701,-5.66390235796226e-07,0.11223442225386146,0.036262455677865436,0.036629472723043434,0.10606584953751685
145,-0.2610427806949537,-0.10083364898898989,0.7272692206400934,0.0008953528023028176,0.11390165423242532,0.10581067441580108,0.12512476263063407,0.10131793477195156
146,-0.2880009875772378,0.20709865715914444,1.11647690464613,1.9377232042566785,0.10431815586589543,0.028003632179664693,0.04465971034996131,0.038674541359548856
147,-0.14043845046416709,-0.09404145284239562,0.7057331271095487,-0.3591564313151975,0.06103383966994385,0.09732233842599845,0.07721757352301767,0.10556393046722307
148,0.008205754342569205,0.06178669820508753,0.8237701946427408,0.893832497867709,0.11614690588574386,0.11501853353661778,0.11179024974421448,0.04718071967378922
149,-0.17361296582481173,-0.028055771601152357,0.8003335864576359,0.23566864056146236,0.09565808900040813,0.03763880359793944,0.03602262074442705,0.07320163059732944
150,-0.22165544987976746,-0.1342312181028829,0.6844494476341808,0.0191701504700089,0.0315023261692034,0.09775914328139755,0.0706830143994652,0.04485467709623662
151,-0.21922566197900417,-0.136089864835648,0.6814396659095517,0.0002841069904096806,0.133597757023878,0.12266538550148982,0.02392437314325193,0.11218549964514817
152,-0.13795632161184873,-0.10966145719428505,0.6957453054480404,2.907096685570479e-07,0.0806305360317544,0.10381180585151005,0.060472477099803225,0.04130594098168025
153,-0.18972827693858751,-0.05591950113452365,0.7673661206442232,6.430349202760708e-05,0.11567864378826415,0.043861250026225686,0.05581545008899485,0.1422975324158926
154,0.1124310771860002,-0.2159912624194324,0.6162447798179697,0.00045984600944179216,0.05852738344004607,0.061786766800075256,0.05592217141170304,0.10805281764174411
155,-0.22011217107159028,-0.18783457200434003,0.6164986727373739,6.685223023217593,0.04808813691775422,0.06951754285742806,0.11057537532072555,0.07984633235694973
156,-0.09534317875318515,-0.07171496774646474,0.73405074042939,-1.8919696724546997,0.0916473984427427,0.024574341963128236,0.08954635550862859,0.07153262393582852
157,-0.06502841771742435,0.04587721325954014,0.8499694370256511,-0.6969455239738711,0.08722007233805051,0.10755803477558293,0.11281078153366364,0.10600615015813682
158,-0.2232983688890827,-0.1315431488726273,0.6959042470122859,-0.10609003716494277,0.0844439819242387,0.06789360765386304,0.0992040235002355,0.0728444510033768
159,-0.22798055310343002,-0.15338851199690265,0.6722864678963262,-0.005967964989578463,0.03512970406514998,0.0909487835197384,0.044348556272069045,0.08621975247036656
160,-0.21591203947804352,-0.14505063247879452,0.6792398073565918,4.905007638625763e-06,0.07262682004265539,0.040444173850695056,0.09286295843527938,0.09839287914436068
161,-0.08247330298223093,-0.022273097340696713,0.7812515797892642,3.9444943204018534e-06,0.06225515175935154,0.11272621507191717,0.10525716497076232,0.06207226223576111
162,-0.22282118311210086,-0.13073557856626739,0.6951742354063285,3.459264718876535e-05,0.04876780891585111,0.049561298506670105,0.07967591768937866,0.04566809191280754
163,-0.27825827734261505,0.21913944504953375,1.069241316927846,0.8588852113330585,0.04389730152689382,0.12902147377377937,0.09803359099058472,0.07164895970955633
164,-0.17195314531262262,-0.121923926211493,0.6979659323239867,2.6737895918273655,0.09852943442053842,0.059875223142394164,0.12003940676284913,0.1169907818415667
165,0.0038843544858081502,0.04153651106270928,0.8373444885154843,1.540886398435794,0.07021897107195237,0.13330343348633447,0.08015603337699446,0.09774652279807633
166,-0.14095535437679357,-0.019653977106433407,0.7977510432545288,0.33419827907934424,0.10302033989142219,0.12369459093356214,0.09813355021179229,0.04824609188415423
167,-0.199169156588829,-0.12868112122322112,0.6953032278470409,0.032725994843349704,0.04760854069772202,0.07367128959921623,0.1111667413674498,0.0415680442906895
168,-0.18901255698889063,-0.1220714033350308,0.7003430320607505,0.0009076765429872096,0.07603597894960373,0.03149250195123208,0.059971375271902876,0.04541095485839252
169,-0.11147322387275538,-0.09548007857789426,0.7208538075822745,-9.133956480135938e-06,0.13608409060988647,0.09564254994090002,0.06483889828439589,0.1323299481976493
170,-0.1427438133406269,-0.0020241685479654437,0.812653977029581,2.6036235095892046e-06,0.09494289160433894,0.12121576479311208,0.1327842295036064,0.13193663278988818
171,0.18717850243634993,-0.16701028381387029,0.6742027459618388,-0.003353001045753033,0.11327841816691119,0.07899306408635777,0.10509401561871275,0.08712488871773738
172,-0.1724166242001785,-0.20769385636327706,0.6142195241744165,5.351946484344018,0.0356803659648523,0.08200694006319487,0.04858611495099509,0.09848878337454207
173,-0.039886629815185815,-0.0469435442148598,0.7636151261458407,-2.9491034792773276,0.07634271538580797,0.11173354718537863,0.09915602445827461,0.07740675787135047
174,-0.018381014100088078,0.10635717808592982,0.9028284961787759,-0.7300737905966936,0.09609853824145845,0.02782344168610206,0.04899766868902614,0.08143878415421041
175,-0.16959398846817508,-0.0630606276641405,0.7593436479355552,-0.09161923088490773,0.04042634263903469,0.06227675510607078,0.031249416585068898,0.04962000751472348
176,-0.17321303570809288,-0.10421550027468018,0.7184925302819997,-0.007059398912852031,0.12846754782141004,0.07733797043359086,0.05899809705472678,0.06565262874337303
177,-0.1609887673726418,-0.09802044763795059,0.7235322988151492,-0.00014587647519442086,0.1244841416006569,0.06248843228621673,0.08209767803039765,0.0817321391679486
178,-0.03709666501318892,-0.012617098229638135,0.7929143266775899,9.201781968071943e-08,0.061816419288216254,0.045376988658600584,0.0012824962476428378,0.06461557913604257
179,-0.19280079409724882,-0.07022298141285543,0.7520332979707852,-0.00024097009699561287,0.04507077595574641,0.052973855430907886,0.03892325546279421,0.12407485292715553
180,-0.29027904218088746,0.3118207477078603,1.0267543741786418,0.2851988961659468,0.07463122928210397,0.0839050871315234,0.054909952168991714,0.0387149501304996
181,-0.13631996427089882,-0.09192424476095556,0.7286660020048151,5.345239950971816,0.10811569948860703,0.12267342590441196,0.0781822711527139,0.11499811635746582
182,0.03376825178450871,0.038389446669130245,0.8367616594738924,1.3183737604667547,0.13154752602871456,0.09986307052326696,0.10309316691849797,0.09936412998640173
183,-0.11739165006125701,0.027846407333861567,0.8452258512710288,0.13936408017555427,0.08583977825435136,0.12324199373918092,0.045013261377346306,0.09570799791714649
184,-0.19400528206156414,-0.11312388384082889,0.7123693491537438,0.01620248461212479,0.06409834043417686,0.1277664596821509,0.030978351330163235,0.10516463575160288
185,-0.19356162027964016,-0.11908808588367287,0.7051190269122721,0.0011125925934097332,0.03788732428444255,0.057428072500998496,0.13896759345512097,0.0880693034162305
186,-0.14971321874968363,-0.10703709005452605,0.7118250008150923,-1.5044047578910756e-06,0.0729946637989963,0.06580028322345151,0.1086428531290467,0.11700710464576061
187,-0.12967707954748875,-0.01428465180798072,0.8083464030725381,-1.7137984797713607e-05,0.049872308876496345,0.13333902175347534,0.10166254731150169,0.08060417943904923
188,-0.23693349098238528,-0.18721089926878615,0.670029933508078,-0.00015065742914347274,0.08172388886910521,0.11258934310714067,0.1229301365742025,0.012576791405097631
189,-0.23835554442882007,-0.4,0.5825963722069487,3.5916915645365894,0.03573245642267069,0.07721966333665009,0.11095118667189452,0.1315259024461353
190,-0.1333632771120985,-0.2335699007591071,0.7258592321663034,-2.5704871806039225,0.06586382821545136,0.08887691506568127,0.12185898105041994,0.024934069207030007
191,-0.014234392963102471,-0.08827204735182737,0.8620848032906633,-0.07333068000697986,0.0829515335872275,0.04352732671188629,0.11685387659775087,0.054611634240434095
192,-0.20199480798912325,-0.2515472656223475,0.7164787943479795,0.026393736976139906,0.0839129525534764,0.08006499833986985,0.08554133877907112,0.12583798880000976
193,-0.23325931841709185,-0.2697656646517421,0.6721091655914887,0.0023485634700949666,0.08460193482350323,0.11326211992577118,0.09784711498813968,0.09399199077051072
194,-0.2285716912822051,-0.25449833627778096,0.6749439025950502,-0.0001442308383714107,0.09921839227966935,0.03727204130837143,0.10540833378967457,0.08887873617816062
195,-0.12255420193152627,-0.12595471188305918,0.7472384099609176,1.2790512241599019e-06,0.07968146665758699,0.09758285483084923,0.10476716094759841,0.058641435466115624
196,-0.20825551240899345,-0.22950769247483188,0.6989567487563974,-1.1293859969419828e-05,0.08911807711769254,0.13035328417117803,0.1222302390873789,0.1133385127261763
197,0.2804214693539552,-0.01278302084686922,1.0613928952971938,0.051670846010116664,0.08063273706315471,0.1201701115495878,0.12651940680116244,0.04294323701527578
198,-0.21891426936493383,-0.20251802564447674,0.6677966131319247,6.849319639924393,0.0764598077304886,0.0939074699122567,0.08036879962739131,0.12963847371642284
199,-0.07821756116337786,-0.029126739718388417,0.7826093920323024,-0.08865193816772143,0.10109743897346289,0.07024822796645261,0.02877701072826275,0.060187013416790294
200,-0.07654216022932359,-0.11865144366064845,0.8039959479209587,-0.26867478295488106,0.10819515979942175,0.05782253413610679,0.05459200358431336,0.08398222432688696
201,-0.22084747969273855,-0.20415904206607707,0.6724598042631725,-0.04738881707405201,0.07620059898508902,0.10523935073544233,0.08507999587100556,0.0896227826311894
202,-0.22030932117933658,-0.19193688275191478,0.6709226598985917,-0.0009373085120953003,0.06562350784343268,0.037324981470835496,0.11637442696033004,0.06188852629766363
203,-0.20387552105502071,-0.14772555511987662,0.6830176151036443,3.5007160775931074e-05,0.04904854280537552,0.11383266337925772,0.09701374079186567,0.08254131231560533
204,-0.0759201684808486,-0.09752446034940765,0.7999956794712414,-8.13629951996335e-07,0.10211734998472981,0.05512021338583748,0.07740620002210864,0.037375448710722695
205,-0.23082768492662853,-0.2123501274515516,0.6868299633418934,0.0009023060777036139,0.10298334268597217,0.047362209827457764,0.06370152384027307,0.05527348306616777
206,-0.31358317620598525,-0.1858012371969531,0.7243923938740741,1.9610306469627725,0.09976809264648767,0.06414132503469665,0.10333161242375971,0.09295409534529196
207,-0.1519521377923742,-0.07018056973053244,0.7144408018661702,-0.4063707466009326,0.11606700316657087,0.07857177940720238,0.04046743447257569,0.04717756784490944
208,0.02195478995584821,0.05842033804179203,0.8666911376304597,0.8787840727477733,0.03409110430952603,0.048465788063180436,0.07418365276322551,0.1131732493923397
209,-0.1317465158082805,-0.11387078876756962,0.7821173348110432,0.23242197563056727,0.07558015863477892,0.12211230667344854,0.0723286734131456,0.13210070934255297
210,-0.18607444146127342,-0.13561142122790265,0.701590280091226,0.018868917194230752,0.0521555886967887,0.1033229569264845,0.041567808745078295,0.02393636473091132
211,-0.17663637847368382,-0.12367453787453137,0.7082877089317939,0.00027437159492462154,0.101412859877409,0.0783481487442901,0.03826742008787134,0.1082787191829519
212,-0.09986752706034469,-0.015200361444890231,0.7347911847870355,3.9780547619136644e-07,0.08613306435558735,0.07733725907486984,0.03498740894467248,0.12177514496975288
213,-0.13096115968070549,-0.09322395586111887,0.8068794327793819,6.479821386868578e-05,0.09780478457784021,0.11662417740506555,0.09975096846998996,0.07667298210372762
214,0.14554293242757999,0.3985030784938789,0.6593864067460086,0.000650524205087055,0.05851421200534981,0.07365306698984324,0.05968217386992965,0.06725511043888253
215,-0.16243245114076943,-0.09753866520879784,0.6305557042465239,6.699837917647214,0.11273685360254582,0.08275565083162838,0.04958990111392553,0.07040001218345826
216,-0.03898208277337678,0.037876928801352405,0.7682419541009683,-1.865605561815764,0.09700477924231,0.09371972282463963,0.07807288532472263,0.09536433695889898
217,0.0014289301717832492,0.044547176475571104,0.9009548473092036,-0.6918284604716106,0.09586842924593274,0.05324479518422655,0.0747327512430526,0.11237296702968345
218,-0.16444845446606116,-0.10278774215472525,0.7510897394744928,-0.10557773891376497,0.044090926515074715,0.05918557527844252,0.06497473534156128,0.08987509452254985
219,-0.17344520132604258,-0.10824983990101678,0.7132090775659642,-0.0058921970948351745,0.06453150697959684,0.12855658960927716,0.05541473430408982,0.062471849186406636
220,-0.16624563602647596,-0.09944957129839471,0.7170137987327093,6.6453040827758965e-06,0.1071367988469537,0.06160067273171161,0.07436226389089225,0.08609847003496642
221,-0.03654346820214721,0.02701761883177356,0.7904590739674676,3.9875267545383595e-06,0.06406697467730468,0.03250874658331043,0.028512493391438215,0.04440434109233968
222,-0.17944878019083424,-0.11344591316042563,0.738154152789919,4.8008752173514275e-05,0.0844995116969785,0.04542251903142042,0.04486871258151385,0.06382850944759895
223,-0.1931660736878559,-0.11751903694653448,1.0762843488673903,0.8723284413795844,0.05368926575911809,0.09113920592958101,0.051075394544816334,0.09446920122554646
224,-0.15433106620495404,-0.09027355722131986,0.719778750762054,2.6230846442571654,0.09504520938490775,0.09261181082180464,0.04777558742135451,0.09996480325306929
225,0.0147157109134895,0.07430742056643053,0.8303531448019777,1.5356544161500687,0.06714449292247986,0.10536643632308798,0.09651991792436394,0.10414768666762188
226,-0.11385366620530929,-0.05535068712329727,0.829846767931799,0.33476027649206896,0.08374920686506623,0.13723074407586502,0.09767201726797795,0.1275671856236409
227,-0.20528848859467438,-0.13721947170690157,0.6993699249894026,0.03265769961885884,0.11879721792928126,0.07054384030836867,0.05533974202143528,0.07704130551049537
228,-0.2057960438138866,-0.13701452720531776,0.6930210658292938,0.0008975175516068789,0.07806120124104643,0.05943099017020793,0.09668562638645216,0.09578283150723794
229,-0.1708888476143047,-0.0944206076557903,0.7012325117797683,-9.020518230911004e-06,0.0501889699449826,0.021342769217548307,0.08293281869569538,0.06321155478618071
230,-0.13150811018584802,-0.07994748525532236,0.7939956088333501,3.567448534105005e-06,0.032153666502822156,0.051022766069109035,0.0407195456493883,0.08817426030562728
231,-0.2755708506688924,-0.1379525522508256,0.6524044871292319,-0.003378092125490582,0.034042566472132975,0.0870777662689203,0.1197703599797434,0.12541710795032923
232,-0.2553183342419755,-0.16374963487979108,0.5823109409303102,5.379623937589975,0.1213499853091846,0.02166992546939319,0.08632025418163124,0.038415210305192696
233,-0.1428064675665235,-0.062276167791338655,0.7268511629505027,-2.9414893619590097,0.11134589580300762,0.13124934412208564,0.07847640899516442,0.08021017058792197
234,-0.023343123286834355,0.0333393977357353,0.8626600533120948,-0.7351743986823843,0.06443185786810704,0.10239270973842629,0.05794061597645511,0.08985016233614343
235,-0.207880652941778,-0.14389526192646823,0.7162361713691751,-0.0926527454347929,0.06179828644199575,0.05812845863725115,0.0675237573377553,0.05666969474580499
236,-0.23408402282598886,-0.16303072192300047,0.67332612388665,-0.007120829785920641,0.11573217388546618,0.09289927432950336,0.061655208517149,0.12370519278800028
237,-0.22773758011310818,-0.15577465916425934,0.6778747986863355,-0.00014358550344915598,0.13781261471903153,0.09501331607732989,0.0416039265884078,0.056664287215519395
238,-0.10922431784285308,-0.03254009040693573,0.7492636470356574,1.284037917259777e-07,0.10901151179825372,0.07276683044242545,0.030994363002575624,0.07528136832098115
239,-0.21149283441563643,-0.14265861030098598,0.7079672960744537,-0.0002427525956482699,0.06403535875894613,0.054260185517840044,0.1164855746561903,0.1109591523751627
240,0.2918214486934726,0.2469684841657246,1.0118065271200636,0.29155386802516886,0.04102269938051702,0.08275689384593359,0.12276367798322033,0.10830665389542016
241,-0.19751739521189446,-0.14409654953938483,0.6820555300376804,5.308183913385131,0.07679040153135674,0.06690899376562938,0.08107478284333179,0.06064617478534442
242,-0.03773487545205262,0.014458589275620881,0.7911027037389734,1.3322929346223846,0.11524489708385774,0.039644209300878176,0.11540401428377826,0.10121699586338538
243,-0.08863158423745904,-0.02329397252088261,0.8283403293008665,0.14481884626721328,0.10824336383268614,0.07481631602070965,0.05860285451959712,0.0448983738207063
244,-0.20528349333212595,-0.14726742316421298,0.6917433237771634,0.01690030700603537,0.11613052370919176,0.043096501517095216,0.04317659063721,0.05313737159951671
245,-0.19972250751002457,-0.14279318378598016,0.688153130063062,0.001121623419688404,0.11339389066021602,0.04415578114513625,0.11533257602873784,0.06390723027004418
246,-0.1712416791825215,-0.12433586444420386,0.6994384461432125,-1.959875818585618e-06,0.046403931528627464,0.0760429348577246,0.09985473763900406,0.11337060344587657
247,-0.0874861054308746,0.0039018174140536543,0.8186318046713722,-1.726673673085763e-05,0.031957057506164746,0.03953926360251353,0.12025299025268797,0.03286732678668922
248,-0.2647625003497711,-0.13580594401536145,0.708779646115398,-0.00020122644045319203,0.05598064995723632,0.09920859601197726,0.057926855877476556,0.06606027778165728
249,-0.2455720545367417,-0.1834272883920933,0.8831070753662379,3.621515659907953,0.06731713180099717,0.07035404777139442,0.04289668433776289,0.041066650442756966
250,-0.10559329225951963,-0.08346321905097892,0.7309970466944874,-2.59202549229012,0.016686325273516982,0.0500548871250406,0.12774231565345148,0.08588466934273829
251,0.03469936737223778,0.09128359775063533,0.8784366617216085,-0.0884237003996231,0.12542994733282495,0.03876496615946406,0.09155051320584685,0.10053656822819876
252,-0.1448654816931309,-0.02849816120935389,0.8024612283757792,0.023445376749498315,0.0263661327719819,0.0959132142704906,0.07571933769989375,0.10592218910045557
253,-0.17188332639217324,-0.10968605995714448,0.7171470579401827,0.0021149138806189675,0.09489819761749442,0.04266040833632831,0.10403046074698599,0.07239967792955072
254,-0.16360929124977505,-0.10325846913012215,0.7216107191445235,-0.00014750463119441354,0.09574317063611333,0.06629668486237823,0.11465366204234959,0.09706175869120216
255,-0.04764278139650063,-0.06702922554992163,0.747852920042425,1.239769576710795e-06,0.018548773398435747,0.09140292591760169,0.054073221231157806,0.11759992957480066
256,-0.1489705858185924,-0.009784918883219917,0.8072700669234943,-1.493479960674925e-05,0.12663245675592397,0.07116235555910316,0.09864917609231298,0.0964763855174738
257,0.3217373651083454,-0.17238125560804668,0.6602827611644398,0.05364511917352033,0.09323658287776783,0.08677309036127741,0.11842415860460768,0.13658181451556492
258,-0.15471282306842843,-0.15071722420687111,0.6739992700621048,6.8375054135410185,0.046816797145869705,0.10781843583089543,0.08290631468196338,0.10599246393387535
259,0.0019723521460365823,-0.030119124785167872,0.7831702961656509,-0.05885325381209097,0.08278938409073379,0.044698138790603546,0.08927981301137733,0.07906648677206714
260,-0.05417978807930335,0.09422100711907494,0.8878300335339783,-0.26093783522509206,0.12537595413167382,0.08777496981044812,0.12108681769389276,0.0815244825771729
261,-0.17909830591219744,-0.08507535431628516,0.7316475085559225,-0.04616545680059379,0.0761691704682807,0.07069328325780132,0.05771531310399821,0.10944998252648827
262,-0.18135153974106294,-0.11457303536069541,0.708919357042287,-0.0008725131937892298,0.06956298797427785,0.07430655105590706,0.03677485321793414,0.06384857756143282
263,-0.163894153005438,-0.11159422419015325,0.711993686573977,3.458220827225692e-05,0.07716217852065425,0.07105588357828146,0.05493300019125129,0.01949250801327539
264,-0.07524191606508035,-0.0014082924869608382,0.8155036535774717,-1.0670825888641691e-06,0.043999864539943964,0.1060340670387043,0.05954986406838979,0.062329263672800186
265,-0.25225154507755454,-0.10795523161124404,0.7102474585359381,0.0009087243637788181,0.05912281164255978,0.08403129534129004,0.07804297638804414,0.08130523904179714
266,-0.295539464903636,0.31836244016481163,0.8902767662086216,1.9845164130857,0.09550587322147962,0.09420685362964959,0.017823712545434606,0.07299231550552923
267,-0.14119013541127495,-0.10965524437719698,0.714238403170632,-0.45334236316734206,0.10788351370851035,0.07635738181988097,0.06707812032838194,0.13572118401901617
268,0.007942971957751843,0.043498333452373306,0.8551879670209771,0.8636513356229959,0.09935802348608122,0.14124090711776435,0.07496999103094429,0.13243670753037126
269,-0.1736182884876078,-0.038401608814841226,0.7559411835069924,0.22914623263671077,0.030464963787799955,0.07049700185602946,0.09931588909563281,0.10488758209489175
270,-0.22006878928125576,-0.142793780776784,0.6798205296892773,0.01856791547699522,0.15365400464996673,0.0655804947421769,0.1003082452640773,0.03815387659824192
271,-0.21799845577979982,-0.14323637500942749,0.6804601901981068,0.0002646935692568945,0.10113251195051956,0.05162342667638415,0.12611205118771857,0.029647930532890658
272,-0.12921986401598667,-0.10969376611075249,0.7220544947666448,5.00659237073291e-07,0.07750009754457438,0.03776758915477434,0.08553112673235305,0.049187634667431264
273,-0.19561890982710808,-0.07855588475174996,0.722977099191411,6.525441556494087e-05,0.0761741224170948,0.11784750540012036,0.09480140332479227,0.0963809494790944
274,0.23823528246881165,-0.14863416196527712,0.793614200305602,0.000848772585226983,0.04359286443130567,0.060423726411785485,0.07852372157757308,0.07566569026554572
275,-0.22093100561498158,-0.15876398683120932,0.6628760304267364,6.714124467240951,0.09419890168427932,0.08188426612143565,0.05393204316768941,0.07733496164635562
276,-0.08644008666884612,-0.05522003732154074,0.7579539114038701,-1.8390245533362846,0.0851769372388397,0.0816889300904709,0.050840429411439916,0.04168050492168675
277,-0.07949649368623135,0.025712377884546278,0.8190901057586867,-0.6866048818280336,0.05309729430778687,0.0429377007682471,0.059481360431283006,0.06887146829585662
278,-0.22817347156820153,-0.14318748733266606,0.6727486185924388,-0.10504353151753945,0.11064831467440213,0.06832401695107657,0.09516715146762136,0.08597786900904492
279,-0.23003959290488235,-0.15447240741833687,0.664176827123346,-0.005815384258917015,0.10142328131594565,0.04882328957132908,0.08869182981362599,0.09200291463059683
280,-0.21563051017854115,-0.14441768870545468,0.6734586007110616,8.332466352428617e-06,0.10053736253755298,0.06771087349156729,0.05253506217726711,0.059302509962872535
281,-0.08826517342873563,-0.013278108931207566,0.7896524729369204,4.028129746332729e-06,0.07207140868027002,0.10036537759243677,0.07859491826943045,0.06558139169231865
282,-0.2354879316003066,-0.1402281206421423,0.6827720637739242,6.172932647997626e-05,0.09121229254850759,0.0516261951379906,0.07354489253424931,0.06861450909487392
283,-0.3292940756282563,-0.12766887238435515,0.8595658485909669,0.8859141263397231,0.035044767321877925,0.10824767460778056,0.11713948359175323,0.07425170427587972
284,-0.16813053202835362,-0.10283169818937277,0.7017460611870413,2.572259980211548,0.10397441705227817,0.0722388762528614,0.04933817699979292,0.031919096731047564
285,0.006279828372109386,0.06957274891485993,0.8490445536981625,1.5301811804258294,0.061441646359735605,0.045882487900929296,0.0718028588550416,0.058455981819509596
286,-0.14550769397713603,-0.04961179100912366,0.7884790061362684,0.3352249303006822,0.07090293299056542,0.1143061634522584,0.09697024100773828,0.07609615174106045
287,-0.20078108000336942,-0.12414051203422061,0.6934070630032972,0.03258111837364343,0.06906864713150038,0.0526066132881585,0.06475628859508828,0.059603454036294884
288,-0.19060186041266666,-0.11546994832914675,0.6992391924718159,0.0008873170342341552,0.05653397717136556,0.07307796051964519,0.06791051750338976,0.055205832386695
289,-0.11533409556816077,-0.0657670742332696,0.719925665684863,-8.902458894842626e-06,0.044182942744756974,0.06963600594505531,0.10701064569058633,0.05280249218163489
290,-0.13859848745023418,-0.04068549486040629,0.8162390652232253,4.553071731488463e-06,0.06397675872280885,0.1316055202920687,0.027992550445228883,0.077169807262243
291,0.0998609705774629,-0.10108617172103157,0.6828901527308028,-0.003401163856569297,0.11693871442229746,0.08702761487855469,0.08131072845568782,0.09976021679139176
292,-0.15159886782771148,-0.10873707275399858,0.6044152578460232,5.407188616632172,0.03698858654872955,0.07798487139016747,0.023014667759510582,0.11933855402814976
293,-0.030529595044005875,-0.0016505819753349638,0.7519229069887235,-2.933475498758923,0.07805060855253024,0.09055779261523714,0.10998728914885353,0.1089996060499605
294,0.0146652913903203,0.08754931075632094,0.8979665178048887,-0.7400414257175143,0.07266231829733782,0.0583254489886071,0.0392886864614077,0.08419294217283173
295,-0.14962287060124435,-0.08445745416734052,0.7632835937890589,-0.09365732441802886,0.04733958162101715,0.01036041674802754,0.07711361680596344,0.07966223815283399
296,-0.15863131828909777,-0.09834513342638768,0.7142790138920504,-0.0071787516183172565,0.11116323596663626,0.11232324437469468,0.02346919763737957,0.07600633039798341
297,-0.15048028053828513,-0.09099615291701785,0.7194582201132723,-0.00014125350371911344,0.08160768863946685,0.11176467857584951,0.05368020867046254,0.11216095483169601
298,-0.019648331427943533,0.03571910926097577,0.7778866313100611,1.6735812188421618e-07,0.08393898452575482,0.07710023552381924,0.0831592937376203,0.042079983922888045
299,-0.16112674912104777,-0.09179875827299899,0.7584251907292171,-0.00024438961593203955,0.08592961985388803,0.07211994884363288,0.041215641558221,0.07261872955067807
300,-0.16382380301039207,0.010507073829755242,0.8843080693907973,0.2980045769032094,0.05801232257991289,0.0751508413345331,0.05924345396611765,0.08175827908682504
301,-0.1379301586816395,-0.07441200473498727,0.7225425014433907,5.2708037296226,0.018566267583739478,0.046928171106362854,0.035323157258304684,0.08956108383750651
302,0.03154124043075879,0.08875545408566504,0.8223322311610047,1.3458145433997266,0.05169884224284712,0.10739052435988043,0.07257955447464452,0.09881777846273108
303,-0.0978259715183229,-0.038337722410406117,0.8508454869862333,0.15021308201190284,0.08467263498787977,0.05781603517838024,0.036795734631804536,0.0805352769724954
304,-0.18722989209682409,-0.1169869563506955,0.7109805266831556,0.017580905253565784,0.09613954417621236,0.13899150077400474,0.08497253842063245,0.11558263964746701
305,-0.18782081081524682,-0.1169831747817241,0.7025623978241252,0.0011300321591997784,0.08191259427130361,0.045295043049148546,0.11093430218601708,0.11677277885162336
306,-0.15019852779159665,-0.06274871868103737,0.7087290434580381,-2.4010749037525065e-06,0.0810085220699703,0.0664099491372444,0.08821021893025904,0.06895499343337856
307,-0.12155341303843842,-0.08047452077100309,0.807395003236968,-1.7385099098121904e-05,0.05121199105652843,0.10834539340045309,0.10688463818415685,0.07444734716742975
308,-0.23827193149283946,0.100714763438562,0.6715378505113797,-0.0002529089934524457,0.1264593360975684,0.1321230749701408,0.0807354278931728,0.13693792022042842
309,-0.2325808731631846,-0.13531168593206394,0.5826528255517395,3.651373723787493,0.10545993808415025,0.0984721948847351,0.10129581838508282,0.0677416749280556
310,-0.12685069435814306,-0.02144128391626371,0.7271412713618549,-2.612990051179889,0.0655361604778126,0.1140943928991337,0.09991129896481218,0.10875921125228252
311,-0.01655853044773803,0.011619721759503321,0.8644484437478587,-0.10343107854051704,0.08418594813307032,0.08234480278120454,0.0630867034668,0.08738360506585818
312,-0.2028117857183334,-0.14734214096597537,0.720207713525448,0.020532112401620204,0.07169206971982639,0.01709775712394051,0.04861997575770278,0.03252832714505826
313,-0.22921684043473523,-0.1561934437669209,0.6731727388675831,0.0018832885814628645,0.05926656211058083,0.11346274052835027,0.07575953747812657,0.058409880090031736
314,-0.22466046110633225,-0.14749551648813758,0.6761330091518917,-0.00015063478770383664,0.10046442563609959,0.11378445279831952,0.06053831751243857,0.07482968821604406
315,-0.10676827995829019,-0.024870987197384786,0.7433655046931614,1.1999693840181704e-06,0.09269391291067437,0.10795037215827065,0.036300559249511595,0.022082235823881538
316,-0.2112452188731458,-0.17774825933124652,0.7044567496730955,-1.8655205116443792e-05,0.08287556305158747,0.04255995834041069,0.10038151841965527,0.10087825604123958
317,0.27733238367059787,-0.2625409963157106,0.9919500750223867,0.05567130718480626,0.09109925298290299,0.09193381711913409,0.11892485807462713,0.07740155690951421
318,-0.2164657632743446,-0.12034428403053682,0.6664905477850732,6.825173147409722,0.09848976825318966,0.041062790191568076,0.09079626243098725,0.10368610403021025
319,-0.05909086955750359,0.05021410964600265,0.7720094294775194,-0.029163696529687762,0.11133120281180671,0.05823846659569793,0.12550204937412415,0.10351881915790224
320,-0.09856669085939668,-0.08547930949205912,0.8198875096165986,-0.2532175300477695,0.042498880258157484,0.09556708432879348,0.04140005026159724,0.08737356749815028
321,-0.22527379314008975,-0.1560618508969187,0.6768946659257616,-0.044940923628710425,0.10247295603300889,0.1318646356021454,0.07511534086053688,0.11074056187382547
322,-0.22144902997963345,-0.14702277440893313,0.6705595385424487,-0.0008089532580952953,0.073090688391087,0.048579808802349314,0.04758985745437095,0.048168057485382755
323,-0.20043226646877,-0.10032616004785144,0.6810582261826975,3.413964812863936e-05,0.013506722804975764,0.11417876375186785,0.08722706419356176,0.07467011793080769
324,-0.08669298368416711,-0.06438765283849268,0.7972589153746025,-1.326474689397522e-06,0.08840901560494584,0.09166212479838844,0.08379602616056536,0.06806175169813546
325,-0.24605448898334475,-0.18151329584764708,0.7004578066207957,0.0009145936023845345,0.07889978096853613,0.07225819548176159,0.043551728691336805,0.09799789216238039
326,-0.32725521640592947,-0.16495633840519786,1.073871057260369,2.0081781249774315,0.10701841465365597,0.0617912998364973,0.033357142166492465,0.09536628251903824
327,-0.14663804978056105,-0.049129185425749844,0.7074558253080071,-0.5000652117629946,0.058491807901673194,0.07645263690053394,0.11139360140484708,0.08826551944146623
328,0.02362422309452039,0.08524589765309931,0.8456854663228076,0.8484370857836657,0.11545693467192544,0.10082129043067789,0.07032885932492587,0.056478442143219364
329,-0.13818313421898998,-0.08850393904170889,0.815915353439498,0.22584255480101362,0.055970716350163555,0.02975854529997395,0.02123043983981692,0.09016351082535609
330,-0.1878979074204715,-0.11714674020681576,0.7062000716334972,0.018267174846116497,0.046770045071565194,0.10616994387829612,0.08681881321359096,0.02327028006988783
331,-0.17819265671549783,-0.1073460874257236,0.7092223592971393,0.0002550745695826994,0.11123907735719642,0.04900064926271653,0.07318716913293082,0.10368614769247372
332,-0.10132606237301395,-0.014339534529522469,0.7245734934829379,5.993322804277813e-07,0.028708827890291024,0.07313474240743785,0.02408060704177426,0.066041250328158
333,-0.1294282910534555,-0.06915696916397834,0.832543501192187,6.567108698489378e-05,0.09603776407023995,0.06032375507593646,0.0984472673589771,0.05069379037034974
334,0.08283092188425584,0.24111808945303015,0.7022640575581892,0.0010553215440046052,0.029523919271082624,0.05240241606725577,0.07009213442958624,0.13534043981969243
335,-0.16334660540193519,-0.09034582272948433,0.6410688223761684,6.728079061907117,0.10161507867832317,0.11015150764807477,0.06110172667368796,0.0766822119940768
336,-0.04434825692660849,0.028512930983366214,0.7447202612703526,-1.8122320169226047,0.12416726307862694,0.07180123125576487,0.042204900920624275,0.04012931021771671
337,0.007816683218966503,0.07452998657048021,0.8904805444590888,-0.681276915975224,0.0678257078694739,0.11972061515437436,0.09728752573198468,0.10992064802466933
338,-0.16249981339470365,-0.09105137114380629,0.7587208215839906,-0.10448775651981045,0.04654154126564705,0.05572138042125526,0.07806875680560539,0.051483927835672134
339,-0.17332401351915602,-0.10196732573583417,0.7093512517208777,-0.005737567747303075,0.11151062909854019,0.044905145647547474,0.09371840122380032,0.09941696591578555
340,-0.1668834765783019,-0.09591738360572066,0.7130132385587492,9.967079599662803e-06,0.02876397992337146,0.07702485965490087,0.06019133278054456,0.031818072369060355
341,-0.03614592106855663,0.03162953638359334,0.7817569408655546,4.066219599226556e-06,0.08778989220313523,0.10389607931155215,0.06728735290343787,0.1432286997268554
342,-0.17822434445447,-0.10101851923759902,0.7350204232052725,7.574031196418836e-05,0.0537227687240953,0.07930679402608307,0.048500557871740374,0.07226157491408385
343,-0.12949905093124342,0.07550319458883448,1.1014250233361227,0.899643048583417,0.03302324084808582,0.05666672977619371,0.05220513671818634,0.04380195949900741
344,-0.16170837482771364,-0.0913078995561375,0.7167085222138451,2.521321668941302,0.030789255193583994,0.11181467988308594,0.08643839898522483,0.08640594749509337
345,0.006706343644210577,0.06898911273275393,0.8358850282932161,1.5244693089690382,0.10239287806152891,0.04472956774207197,0.1222122847270358,0.10645985109161119
346,-0.11695741441942725,-0.030171836970876165,0.8044347963401283,0.3355933837262719,0.03413772439336593,0.12784019211397668,0.11570579005645538,0.045275430366936965
347,-0.20808421584161196,-0.13237757587743015,0.694823252765996,0.032496400791620715,0.03435541795223966,0.11373990705624958,0.11631745016643302,0.05066141927319956
348,-0.20807592370495104,-0.13387361616082405,0.6921324129904255,0.0008770766470456509,0.11900033675481689,0.08968791236403287,0.11288587618199541,0.06669767240208319
349,-0.17099424380842876,-0.10833222797655978,0.7127708256944517,-8.779940092258324e-06,0.12632669235827876,0.10354166534579985,0.10489307175523135,0.05979036218765854
350,-0.14007490440831044,-0.04969659906614632,0.7565447703674236,5.559482970301317e-06,0.06524029150195249,0.04428648611295626,0.11581260693228566,0.09131949118320434
351,-0.25915706915452286,-0.21850469933577144,0.6468874127344345,-0.0034221637734812493,0.07622847019864679,0.08976821692683888,0.0408971698334889,0.08221069066698455
352,-0.24695329836868407,-0.21304570664696715,0.6626601647489893,5.434636911378147,0.10570138809281172,0.09769687482417315,0.13439002186824575,0.05323180081514736
353,-0.13852456480976622,-0.08635500177751931,0.7541499601639031,-2.9250648037148412,0.042794432097710985,0.04747959138277921,0.07447484131142793,0.1135710255499785
354,-0.02977217399898613,0.051715068051847224,0.8406792850295183,-0.7446769996339629,0.12279025666603957,0.1507067000217184,0.07366106654876174,0.03919288380446777
355,-0.21427042533529833,-0.12615522009163832,0.6866124542930708,-0.09463307099940803,0.11252725466768897,0.037096926627217905,0.10906771677753976,0.04019036359169438
356,-0.2361551412067005,-0.16268664951371742,0.6702161500190823,-0.007233205675522556,0.037335002378166324,0.07804327287208929,0.07903296641818762,0.06319909545473257
357,-0.2290313712469138,-0.1564577628364729,0.6761423038899076,-0.00013888219435302895,0.0901888775716288,0.05314450203787023,0.07631988347371053,0.0684311224889341
358,-0.1035719280214224,-0.06287637409435798,0.7867484770394407,2.0879711359926922e-07,0.0905097492122746,0.11541542715342444,0.09260388132139229,0.09673370649288222
359,-0.21555776402201351,-0.12587479460506468,0.681862584264323,-0.0002458773907779691,0.05489253051734866,0.05765692767371522,0.08964317084507906,0.05513778922726256
360,0.19788446088293243,0.273042029559425,0.8624237775511671,0.30455180516954755,0.07874868732172667,0.10705395305359228,0.04939549653963166,0.09578109007521471
361,-0.20723397311305136,-0.14310636714667724,0.6905195436393422,5.233102646756014,0.016482059111236954,0.13512961961363507,0.06742587234743357,0.05480754268155609
362,-0.04127351575527022,-0.01512487362092746,0.8362908000274786,1.358941204504418,0.07975652381230092,0.07683185086163893,0.12028866698307579,0.10335914771855559
363,-0.10251920173234241,0.019909291145926544,0.7775003354156179,0.15554605243453642,0.08937535501508252,0.049233313614916695,0.10551366194676383,0.04959575603107426
364,-0.21515475638052,-0.13420954468485657,0.6814434917731534,0.018244429038642977,0.08736346935752122,0.051076290775668,0.06964816284913011,0.05758402785911935
365,-0.20849489629445828,-0.13755981733636558,0.6872008364864178,0.0011378290826121384,0.018193952005498455,0.09751932180506082,0.1388147552292832,0.10360140198485722
366,-0.17905886549464278,-0.12427744672938373,0.7067050986677582,-2.8281636337339295e-06,0.08845487390834537,0.09345398909619014,0.08229096578329918,0.11654187626580954
367,-0.08975387333750601,0.011557260325092245,0.805582075350379,-1.749279844249915e-05,0.04201931668583987,0.10816754086403262,0.07922447129159242,0.03312333781172153
368,-0.2594530547742059,-0.11384617467835412,0.673949004756366,-0.000305652622632828,0.048779938863551836,0.06496407307868048,0.06951663272868655,0.08293318237623509
369,-0.2717096243106447,0.06279097737832606,0.5992254890872701,3.6812633785288833,0.1286518660924342,0.05878064310026731,0.07838904535221888,0.11380224916508509
370,-0.11781500077845103,-0.0832233226772705,0.7465393481559196,-2.6333837713105335,0.11004440624558982,0.03558554701460434,0.11428550773495191,0.025727314476259106
371,0.031594786503467254,0.0856476139024599,0.8947790865888982,-0.11835001513896559,0.047492315451388656,0.07092142186166293,0.07355331973186509,0.07680763472658068
372,-0.14501525375243401,-0.010956118389253311,0.764290377818691,0.0176538407676208,0.10685938298777799,0.11509620745378259,0.07768556690768622,0.11518991181408554
373,-0.1769008629570908,-0.10165341719954751,0.7141240489046116,0.001653717100443066,0.03397745639100009,0.07924979595323313,0.06908668376656943,0.04495281281498883
374,-0.16842117396034154,-0.09634462452945314,0.7207430982732507,-0.00015362302624821235,0.03518243270918992,0.029867683564456054,0.0964553620006614,0.0815337550566462
375,-0.06088350146071403,-0.060842358315869205,0.77626932726305,1.1597119753025263e-06,0.03009621019569009,0.026750593953858478,0.06353660763653056,0.07851567299521217
376,-0.14780299374403988,-0.011671018645555586,0.7674653066833449,-2.2451309429544595e-05,0.11768333600266259,0.11619583469412237,0.07860417105330003,0.06490188462536954
377,0.3711213470880125,-0.15905239428835521,0.8299293975314322,0.05775014043817987,0.08549956620436397,0.06231157459420628,0.07699012793754127,0.10397734480868573
378,-0.1516592252197112,-0.12317010191298677,0.7297288007297599,6.812326088603669,0.05233580291264032,0.11729296793635763,0.10965938169192734,0.07207967289404692
379,-0.0027997542255930874,-0.013322018578123651,0.828004807520026,0.00041136377274235414,0.09870235220666582,0.0430387030739046,0.08168128523693399,0.07282309662295326
380,-0.04090560788464981,0.08853521952904031,0.863914123036636,-0.24551460239739042,0.030569288020259922,0.07882619345140278,0.1037614012189879,0.06944543542221934
381,-0.1742321104661436,-0.08927987944468896,0.7236703727264197,-0.04371555910197263,0.08690092048097492,0.06364913457467859,0.09686260695355674,0.03529540094134741
382,-0.1774781929646776,-0.10976794607308626,0.7156271244384681,-0.0007466184343459549,0.08630761049977637,0.09906160922017976,0.04479412037961104,0.08981714707541745
383,-0.16126605267996902,-0.10620955770626311,0.7225339612804235,3.3680065497160744e-05,0.0988978997948788,0.08918342736675021,0.05558014312220853,0.061533520532199765
384,-0.07270790510678299,0.015939788014897927,0.8192674263025322,-1.5915327965800694e-06,0.06447454407695848,0.054664172741230616,0.08435664380618577,0.11804168913565648
385,-0.2528350154974492,-0.11381887609435165,0.6819670602755495,0.0009198997353763005,0.09132494718205007,0.07975280207163525,0.1050745820335079,0.10597559139746159
386,-0.2851416107975681,-0.046492045809258586,0.5996230146249074,2.0320134049913907,0.10013104675056458,0.05958824942641739,0.06816735885880434,0.07482993053114713
387,-0.13634021481095815,-0.09938588821896349,0.7439643627522144,-0.546533223136469,0.09966554484192772,0.08701088329871484,0.08461870505760509,0.037196755158840536
388,0.0063993641524769385,0.06274414180022686,0.8755279130812531,0.8331441225198569,0.06292272214693168,0.14317422869610555,0.08837347629279957,0.06841959195753505
389,-0.17794326959583112,-0.0686509124844677,0.7249910770928208,0.2225120853445065,0.06928047658827484,0.03507145793918604,0.09006570896574337,0.04139898144108358
390,-0.21840675570717602,-0.14526208607062768,0.6840258994078429,0.01796672482940877,0.09287229846669977,0.07761745601658564,0.03713419459079841,0.10530273397337638
391,-0.21609122850611917,-0.14419756433341802,0.6853834604256256,0.0002455162520781098,0.07938051325759633,0.07717268544449138,0.07704625552329457,0.0780324941632045
392,-0.11480154262912662,-0.08646498797912272,0.764810496848186,6.938859354742739e-07,0.09018488012091909,0.12258529008695639,0.08056551750952527,0.0586173415148117
393,-0.2026138552320722,-0.10661841571183134,0.6981372603997466,6.604721799706033e-05,0.042471692375934206,0.10693469558400343,0.063035931028579,0.12389308359561035
394,0.31227009047650534,0.10785870237165418,1.1308378356256217,0.001270901475576619,0.10376103145246414,0.03359722447985679,0.0739220288611131,0.06338004700030535
395,-0.21979361370323064,-0.15375284174828793,0.6704612545941585,6.741698091553257,0.04201053992764659,0.015969867291843305,0.0322476926286772,0.045475907286130185
396,-0.0713933850264416,-0.03287710385602022,0.7894433064753746,-1.7852333224814365,0.05288059677553845,0.05340557570488112,0.073897818500528,0.05446746414030015
397,-0.09657604630284561,-0.004599066287425568,0.799735271237027,-0.6758466908449023,0.0952218121362584,0.11997088418334523,0.09825106061859999,0.10819061871289241
398,-0.2316375423296068,-0.15525600587572042,0.6672793626246804,-0.10391075546412333,0.035833040658165505,0.05961300612379521,0.057903227776146544,0.08722032037581888
399,-0.23067243571592255,-0.15822412955195259,0.6640448517508634,-0.005658788825479853,0.07308169269394357,0.05233162512118681,0.022188920791015414,0.11243236644127132
400,-0.2127004039619154,-0.14421647860500997,0.6743743367343166,1.1549728976602643e-05,0.0855991672378274,0.10417552904486631,0.09375774404556206,0.05911904001565674
401,-0.09712988690631857,-0.021818012947842247,0.7935588799388446,4.10171261666153e-06,0.06722305584670435,0.07291280851219814,0.13315328204418805,0.11829469216690985
402,-0.2548522850053948,-0.1656508492713518,0.6812553114268299,9.00276504823932e-05,0.08377657403541758,0.11493726014823931,0.08893831924653965,0.12238309685535184
403,-0.33586961642809143,-0.2608199879320533,0.8827501229015925,0.9135159904798617,0.09626497861189166,0.047087821508227594,0.05970437744694905,0.09276376768401735
404,-0.1570566405920215,-0.09386315308708504,0.7030998037202226,2.470275779697912,0.05483382751532122,0.053050930478856735,0.04792659342305877,0.024974756420016998
405,0.01332210042996762,0.07211464862452321,0.8474697078922181,1.5185214194852712,0.10598645297827546,0.05189457070450342,0.05685613697596046,0.06524752661558818
406,-0.14811843360020271,-0.08210802122414068,0.8046215215891713,0.3358667799899033,0.12860645946082538,0.051275478818605745,0.08537997458232062,0.06455107686421648
407,-0.1971805478765819,-0.1286996833443056,0.6967042373090743,0.03240369655670931,0.0954918652994212,0.13077529867351398,0.04287424507560566,0.053099018083690455
408,-0.1868407040171478,-0.11852370694892267,0.7001133411407902,0.0008667980462172792,0.05166831826716835,0.0806813966962529,0.09124568163753627,0.11853862028429814
409,-0.10848207199917997,-0.03388029429490885,0.7147519300407573,-8.653123443492163e-06,0.09106953206626588,0.09341174907265017,0.06482202769895222,0.1361746199426228
410,-0.13699233006641653,-0.07797063346721395,0.8321916520755305,6.585672119010138e-06,0.08377994563840883,0.06591249351385796,0.05433092006615337,0.1276430993605588
411,0.08927539002338147,0.2953214064020512,0.7129413787165851,-0.0034410394107190862,0.10526333400949124,0.06658592164534761,0.07448087562641008,0.04961110515093295
412,-0.16719665959645394,-0.09361234713152106,0.8023999316636116,5.461965211735459,0.11926431263699785,0.07825049094801112,0.028521464418036293,0.062351019288402004
413,-0.04479433838678859,0.03878970721328212,0.7437273812457931,-2.916260190864388,0.09575287589675127,0.12809207568485712,0.08415592953287807,0.10878314993202763
414,0.005345967391978401,0.048818920458148896,0.8916781752525847,-0.7490832483637392,0.09625905950737587,0.10591820530225703,0.09832496467752944,0.057934092953393024
415,-0.16144050759959905,-0.0954080857396763,0.7999667089733881,-0.09558008834364343,0.1379641875349999,0.07695865666403837,0.05801020702880829,0.06798034569506313
416,-0.16945622493090656,-0.09755753776664444,0.7205871076978302,-0.007284233223020942,0.024947266947590613,0.04338539746506978,0.1143130598728207,0.08297816857594516
417,-0.16049795289123062,-0.08382667026085222,0.7238377572705453,-0.00013647329369957393,0.08522770522894467,0.05607348667448566,0.0513839564545981,0.04520907501246569
418,-0.028199070396343895,0.026730204004819846,0.7537957948855522,2.5263707031104154e-07,0.06703693101370994,0.03264789025119003,0.07284323621904742,0.07328036267401063
419,-0.1678438447677049,-0.13440980148351045,0.7960998999802705,-0.00024721215311721115,0.08343815126964603,0.09417302782595932,0.059261294238864295,0.09865476606134253
420,-0.14754540393029386,-0.22154167283404036,0.6701522045101974,0.3111963351938426,0.07601719699870124,0.11847629522348953,0.10235122018682995,0.12947699682395025
421,-0.14503324570520393,-0.05603773477000107,0.6954621532428512,5.195083911860756,0.07245129711368338,0.09343475507767031,0.08995031724836562,0.07756667840753632
422,0.024490208774278543,0.09855001786550838,0.7900181911684595,1.3716755356428014,0.04769348784766694,0.05661356515035847,0.03823000191254704,0.07506053927303906
423,-0.1035007024959923,-0.06978430831673349,0.8704563464495135,0.1608170225604699,0.05718676249218072,0.07651842004225298,0.09213723446398107,0.0845429896031428
424,-0.19165296945869753,-0.12044281657907485,0.7173938836430104,0.018891028045201576,0.0917470494506801,0.05414185678600639,0.051340917755218526,0.08894280214913697
425,-0.19189684300125362,-0.11921099110430344,0.7008197863913576,0.001145024460593988,0.08173567010565412,0.12524862210883703,0.026935823749737492,0.07128478879607476
426,-0.15263715981063808,-0.038534544342933075,0.7037860737220313,-3.2413036288373275e-06,0.10603954392120495,0.03873338630285095,0.07415595323657338,0.07174846198690792
427,-0.12742330093579435,-0.09949370525717444,0.8105599392488642,-1.7589561306982706e-05,0.0179736592248716,0.10117724669966172,0.052472926643796124,0.10816203721335621
428,-0.22749224077320326,0.3170770658962242,0.6892563684387761,-0.00035940486248736675,0.061714629672880446,0.050128491377042526,0.048462567866454795,0.11568763415402449
429,-0.23116289172737692,-0.13866528127327843,0.6396528530176014,3.7111822464829474,0.08927520941838456,0.07205029700249241,0.0742701789240005,0.06915269716825567
430,-0.1269737270732284,-0.012435204372474584,0.7165760400067166,-2.653209566720748,0.04237722732809984,0.09893381303464659,0.052379336280137904,0.10820855645437005
431,-0.019724049276287903,-0.0005278505011342971,0.8600332901855602,-0.13317771090468125,0.05438322971976806,0.08970216551694224,0.08525003310390535,0.0643179711710558
432,-0.20671703830672142,-0.1539025371610564,0.7333358369829345,0.014810458682890998,0.03827577388188666,0.08021782615271686,0.08786546079985154,0.09843168603725598
433,-0.23169149348199541,-0.16101652341140768,0.6733165008534797,0.001426228965360308,0.0892327469293909,0.08199398200374844,0.12073419085944208,0.051576003735952704
434,-0.227074794771291,-0.1520322902738314,0.6757449635172349,-0.000156471065176331,0.04595356992356536,0.06741565192411603,0.054453558517116404,0.10842855546006364
435,-0.10710027944419503,-0.025212528603355377,0.7293711606472234,1.119058679788196e-06,0.11784767687358617,0.10445899415713152,0.10940363914303393,0.0737000941941364
436,-0.21644190136816416,-0.16400617550777838,0.7136530763255707,-2.6319345477196845e-05,0.09318905339905326,0.058526840429323046,0.1272637673767681,0.11176062390927435
437,0.2589482541620788,-0.20170405422696036,0.8592884036389518,0.05988234932767642,0.1259187894841703,0.05207794170506243,0.07764270972315385,0.024174908937330077
438,-0.21938465908847904,-0.12186878706786569,0.6695719648717041,6.798967484195816,0.0766860357733239,0.07036723701512072,0.10227180207282642,0.08177266323532129
439,-0.06208961129405682,0.04941390874693574,0.7662887489451752,0.02986655718926262,0.04362282444547517,0.08174387066146707,0.02707137654808864,0.08552598080829536
440,-0.09862288367730448,-0.0695743918653472,0.8302546300365098,-0.2378297872491672,0.07770223945568915,0.12107019794291574,0.04940035981131453,0.10584168771432088
441,-0.2277623393135317,-0.15243667011975853,0.682883937331782,-0.042489704763867674,0.058830024439427184,0.10637861920480608,0.0603522210798217,0.12317988126107304
442,-0.22418923546597855,-0.14524819666127486,0.6737464424590783,-0.0006854984518719464,0.1427832734873012,0.11140483241773044,0.10120560079930065,0.11917074513980741
443,-0.20366511831592063,-0.10715175869369242,0.6838043911051318,3.320404552994696e-05,0.01933838458567075,0.0231828368780718,0.11569496104320162,0.040544884329316015
444,-0.0843445567290097,-0.044855684926623784,0.7984219328903005,-1.861983453413769e-06,0.03926999353538623,0.03251405759833783,0.08308808300428418,0.0736772214260408
445,-0.23893565702068156,-0.2032073251374063,0.6992733469575411,0.0009246287046101358,0.10291661216893785,0.14845770139135522,0.0774876203034686,0.09942228790175107
446,-0.33307790497429096,-0.19408390060906516,1.0654193450966907,2.056019875478732,0.09396218628923539,0.06874726953457747,0.08870946713365031,0.1006170956666596
447,-0.15535772712551185,-0.05661734577295302,0.718937618291222,-0.5927403280376166,0.056913193715436926,0.03153221532864179,0.047712485557414835,0.04488418143601439
448,0.01959008617072905,0.09340818966887088,0.8589847798950939,0.8177752451228973,0.0641458292044718,0.06573956144797435,0.06774079410638194,0.102670867272178
449,-0.13363594709135646,-0.07675252910850688,0.811259957410614,0.21915596748817265,0.12119776111805773,0.06328423071583397,0.06346051354206399,0.11480307545694107
450,-0.19030447368479053,-0.11464604061886341,0.7122958042011799,0.017666594954678014,0.07241349214097208,0.09386720068820471,0.057742744437246876,0.08533656860175122
451,-0.18079493114885986,-0.10522652573982139,0.7166524662698869,0.0002360202729199805,0.11591922214025864,0.042437765191676524,0.09890192942239313,0.05222624102096556
452,-0.1129416865337095,-0.024051974295413725,0.7375719851133852,7.843815314386973e-07,0.08258656174013712,0.05308385231489518,0.0675785499835974,0.11392082451879158
453,-0.12183471897631254,-0.05842677365911558,0.819295941304152,6.63817984699683e-05,0.1024968667339746,0.10505381200781258,0.06751648174524018,0.11601977404480728
454,-0.043039093254217564,0.11929965281599286,0.6731147373240397,0.0014962427740798682,0.09715962137256366,0.0795727538448352,0.06740722111326228,0.10000722015685946
455,-0.16898857842681972,-0.09370524459999824,0.6385136079037562,6.754977946087844,0.10338965359569706,0.06479300068235179,0.12025816569598347,0.0815598375800493
456,-0.056551888248684845,0.016128289709934518,0.7698772383507863,-1.7580338399187607,0.0915175280795966,0.05015941733196111,0.09244268464176267,0.03816764410245432
457,0.01334572947163204,0.08723424295098764,0.8892901390109748,-0.6703163343693067,0.08041560758480025,0.13292105909559224,0.0608502417673869,0.05302516035294362
458,-0.16088765196582447,-0.08674749377956159,0.7362155894168579,-0.10331286989399147,0.07694662078404421,0.06767538578258764,0.06139310811079655,0.03643028407631056
459,-0.17429542257542063,-0.10272520481179659,0.7134462635095687,-0.00557908875892749,0.08889637407814667,0.06579623838730184,0.0485353790621416,0.10712573659240791
460,-0.16818546636369122,-0.09770024745168626,0.7180844472350617,1.3080999635390047e-05,0.0760051315562315,0.08087757052711722,0.10069449197667739,0.09414682070971493
461,-0.03798716727948398,0.023828060866189327,0.8234340476018654,4.134525102080376e-06,0.08026458438380737,0.06570552083373454,0.07135760824735406,0.1538805047303514
462,-0.1747567162963218,-0.0956640915314943,0.7160111067381062,0.00010457728388967294,0.0515445004341354,0.10449451878697388,0.1475700219730631,0.11829859921067366
463,-0.06985291037290747,0.329776854508087,0.7597014514413388,0.9275337343991997,0.1054843419548076,0.06068094571869906,0.10978574095247157,0.12143113051923553
464,-0.15995697673822357,-0.09722146404246229,0.7317354300384206,2.4191283817314724,0.06826325642482675,0.09886758878807102,0.12550501858720967,0.10041319106013713
465,0.007220541830399441,0.05152181525857269,0.8733346943638755,1.5123401296806664,0.08514668478076366,0.04275648725723692,0.09644716568457988,0.07421965275045307
466,-0.1133271577136194,0.00044202807360632645,0.7463431741386565,0.33604626231266105,0.061598095817822315,0.0726685868191084,0.08782264271071002,0.05198616788040057
467,-0.20555017497820693,-0.12984803094815128,0.6907432562582522,0.03230315535282536,0.0972605287647868,0.11338725891843998,0.08922465354051351,0.1393627714752583
468,-0.20609093957419888,-0.1342251939612943,0.6915514690603385,0.0008564828879259347,0.05592544835160519,0.07068119631668444,0.041183380906095954,0.047266670479097606
469,-0.16697421666704423,-0.12242508565303684,0.7636360587810219,-8.522170568869624e-06,0.11072914333297892,0.09304659065230536,0.054204595914511315,0.0605486472851402
470,-0.1432735310300952,-0.01826499595027148,0.7034878945922404,7.630629046163147e-06,0.0879761250549014,0.07471933949204294,0.0896501964252583,0.06819171483953121
471,-0.22180705506713116,-0.188286414153042,1.120046667927253,-0.0034577383027755426,0.02669172636328775,0.10553182655541951,0.07604082607319747,0.051362400111183835
472,-0.23288196847188555,-0.27610984213315803,0.6727437115883798,5.489169907612399,0.0862348392472214,0.10490042485275929,0.04193533965202646,0.042022194667744456
473,-0.12771338559474293,-0.11231528107244515,0.7984454418400398,-2.9070645742459185,0.02951216298775119,0.08783649523338906,0.05396531630532901,0.11783856100458835
474,-0.033318954333289796,0.04930346745732905,0.7723597031586334,-0.7532622998388956,0.060173961466814745,0.059510958327194836,0.06742268981975087,0.12662155145998705
475,-0.21455973211584026,-0.10926913863919724,0.6588394766589846,-0.09649847961552832,0.06380874527231069,0.043077616651774626,0.0868385096815201,0.07343053745763159
476,-0.23231813383405314,-0.16500651144655434,0.659314317979102,-0.007331875526291893,0.11325608886290041,0.11981761450640295,0.09525589338501514,0.06625652992263895
477,-0.22488577923956105,-0.15923453720233122,0.6759345800351967,-0.00013402852010738426,0.07314306944851663,0.10248013108087183,0.11214486306095026,0.04084915460246741
478,-0.0937902151073654,-0.0896181221521648,0.7653545379721761,2.9879429546281304e-07,0.08688242955796525,0.056548094098548767,0.06149731009718603,0.11975061996876173
479,-0.21786586903193028,-0.11258843077023922,0.624558515585106,-0.0002483901358807869,0.059967984138577055,0.07733708147510371,0.1029435352435219,0.09158271235386481
480,-0.008423177205915955,0.06363689426533492,0.5762044230618735,0.31793894934585065,0.1527320060579742,0.10070212934566984,0.07282253696496332,0.04383051624490513
481,-0.20023545702189477,-0.1502613535976604,0.7177747820904289,5.156750772009122,0.11766370883790185,0.03551157408317679,0.11116556641892847,0.11391567789167872
482,-0.026200131162035734,-0.03121037810670063,0.8636819608140432,1.3840201545199968,0.1268998378036683,0.08310956471012304,0.10631808799418056,0.0927111103579339
483,-0.12170019046790259,0.018087001843498096,0.7277458950625803,0.16602525741491114,0.035040450642554545,0.04545732466379481,0.08027396866883725,0.06137712923722882
484,-0.21438833212790626,-0.13631187853285032,0.6793060178172691,0.0195208519571236,0.04795764280338957,0.10070608818439407,0.07231322447539965,0.06077587138761445
485,-0.20570653696934538,-0.13907156493815698,0.688109679616583,0.001151628563813885,0.1147179325447606,0.04607323172310696,0.09405531167325316,0.09656184937708866
486,-0.16585382977013244,-0.124968136504643,0.7378800256927623,-3.640656509405274e-06,0.05766306398971098,0.05877830528063892,0.05790199671265949,0.04150300022081897
487,-0.11185773931796134,0.007704413517442388,0.7585950331838903,-1.7675114234558115e-05,0.04483454233840761,0.07694854035308014,0.10787712963203612,0.01529090755132416
488,-0.24745446004974903,-0.12454662817446938,0.6721049295766214,-0.0004141132475098967,0.12767755723957247,0.11169218884760375,0.03508542999560504,0.04036464762921228
489,-0.21405480229672433,-0.16522153514615853,0.6815150650882805,3.741127950002953,0.11648461922999723,0.09731767640553898,0.08960104440910835,0.06974002468883053
490,-0.09613788823631259,-0.07916290206235083,0.7795479376236479,-2.672470351447322,0.03887871179847882,0.041944649347537485,0.10328451174253925,0.039440497211787634
491,0.022733624440474498,0.09145026640734927,0.8873714718468905,-0.1479113665475718,0.04933771645486906,0.058554032597516556,0.07598956945486884,0.05323879890486928
492,-0.15600473890242464,-0.04529866277072758,0.7346080908636542,0.01200186298258552,0.1143149002211799,0.046414204059687346,0.05120326120672706,0.09166338248519784
493,-0.1760117175880988,-0.1072655053428353,0.7133655587457536,0.0012008537040370795,0.05102069628803201,0.09942827391103204,0.08643374777249707,0.06754995222108226
494,-0.16677010275466056,-0.09990041587206089,0.7209600576178176,-0.00015918062283696763,0.055604076546070705,0.10088547089822748,0.1007895423831613,0.11319779006691875
495,-0.04189243469754039,-0.03321295652718809,0.8132839635892174,1.0780708266962335e-06,0.07116706129261094,0.0783102063523069,0.06966581599473143,0.09642221792917233
496,-0.15550446901248227,-0.05440284385313365,0.7419238093557409,-3.0255546190601506e-05,0.04798722712143101,0.07080716298608786,0.08190636167611796,0.10121159266853932
497,0.22722646066300223,0.15407830434630332,1.165482064053633,0.06206866424750018,0.13004734390822964,0.09265130981764737,0.06672515687060165,0.05874328065105489
498,-0.14898243981099485,-0.09338717330174673,0.7394479448631085,6.785100581260214,0.07523887156736597,0.05002644919047428,0.11952263537122043,0.10594929726019932
499,0.01300799773631911,0.02444054250168204,0.8583350470226908,0.059196513814328666,0.09518610381295238,0.053224287530148136,0.12077547941154304,0.07716249486292076
500,-0.0642243766340948,0.05055771686599342,0.8462865589936074,-0.2301638195776815,0.07845527417265502,0.11327404133971716,0.12279882542934119,0.07474036340225021
501,-0.17818033609382875,-0.10316494015935707,0.7226330316174342,-0.04126370215799979,0.05920958344230849,0.0489751340953141,0.07018109870730978,0.10872369381974675
502,-0.17914203246923466,-0.11088241351620426,0.7178453082428461,-0.0006255830400032684,0.04424869740091715,0.057380743648637385,0.059246963673128504,0.10182600810090077
503,-0.15448758631967427,-0.10243576181368719,0.7273636340659052,3.2712173379086513e-05,0.062296096879206175,0.11347613315522738,0.11671728034510455,0.023431262121604422
504,-0.09095098651515021,0.009905544064865934,0.8187826139353457,-2.137553202874625e-06,0.03759809148101985,0.05242708808706606,0.07994175580112424,0.06825802412758977
505,-0.26352327045963353,-0.1467220727195741,0.6757265632178912,0.0009287664519420015,0.10182098835405297,0.0862946755836826,0.0722579067103634,0.06436513109537992
506,-0.24586568513745907,-0.24226109549801983,0.598211166970456,2.0801951587925527,0.09257715478177547,0.07245911478704387,0.12498065871623806,0.05574785622376432
507,-0.12480626447935561,-0.07933630078965326,0.7430613157756069,-0.6386804572168993,0.05261543323191707,0.08998433677894031,0.09117324970893971,0.08331107924889469
508,0.00029420980933803076,0.07233041556273045,0.8795503040545182,0.8023332528828632,0.03860772421028097,0.11506254725415178,0.12259572649954924,0.06464423163772658
509,-0.1863453728017038,-0.0978820643089251,0.7339851439398296,0.2157753444532708,0.09478312997513394,0.05920260031009982,0.10067744520815726,0.10852057076432244
510,-0.21826618547792634,-0.1451555337270788,0.6834781934320516,0.017366814749726147,0.11640054664710282,0.12977330372658308,0.05209546949511415,0.03790663996100088
511,-0.21574821056869534,-0.14302808309281473,0.6846368637305967,0.0002265882882843833,0.035875930614261406,0.12934473026211293,0.1220667399447849,0.09948626531928156
512,-0.10211275237347645,-0.050922764591570024,0.7418153803461559,8.708803975382624e-07,0.09903269138627378,0.10124102133035028,0.07779469486222884,0.03660841849661095
513,-0.2088289121351198,-0.12961507428991897,0.7182316976493729,6.667381827214605e-05,0.04767455468486434,0.07482311962585064,0.0988840052281108,0.1104523842281552
514,0.25917176125286634,0.3586744556745999,0.8434139920552458,0.0017320758336683089,0.09019950874123311,0.12580046438960846,0.09487177522035327,0.04588850683200009
515,-0.21920481337720618,-0.1427031199798504,0.6708262439808516,6.767915015418076,0.07157332548514447,0.12357857614918863,0.12058314433726411,0.06563291773771823
516,-0.0626345094931155,0.005587773542653163,0.7617112579800761,-1.7306389391401673,0.01777117942879508,0.047993585800699526,0.10930032914525087,0.11968735557904761
517,-0.11013810655044037,-0.04045912154271064,0.841383853716993,-0.6646879744802306,0.09700672525286999,0.09482263661992117,0.05863962611823295,0.1192911266556634
518,-0.23490823561060434,-0.1572809169641225,0.6857452574968704,-0.10269444135298479,0.10454711455023757,0.05805839237699763,0.12151833040100135,0.09736356709495367
519,-0.23205363515679306,-0.1540844065227065,0.6685958398100597,-0.0054985088131282375,0.13830600477571647,0.08394253883895096,0.06669748333328407,0.09224891005474503
520,-0.2099198337424171,-0.1273114551479203,0.6763873539292874,1.4561476728042215e-05,0.03731344013642733,0.14726662337898558,0.13359102362229328,0.09712160228542877
521,-0.1073811675445932,-0.05372994020351923,0.7743273390062041,4.164573358926051e-06,0.037322961779419205,0.07605934690190523,0.08472310583435996,0.1121992703775698
522,-0.2754828572385676,-0.2127240079140901,0.7004319089077434,0.00011937515404226369,0.08837115021729838,0.041252997519341986,0.10617966102985064,0.10297936953932289
523,-0.3320559551698945,-0.18473128470016964,1.1148613912327612,0.9416970627102368,0.09720514225367055,0.08834358573427366,0.04623828483292723,0.12803398906248162
524,-0.15854256958881127,-0.060269786908119405,0.6966128658218048,2.36788554429137,0.03953083060306348,0.04028798146705518,0.13928124665897404,0.09334162245576218
525,0.008201952135292678,0.06677165617607056,0.8113892520482474,1.505928057260879,0.026172468069732516,0.05865124094618302,0.06429919746993366,0.15386078712878581
526,-0.15830444123899826,-0.10546577536705348,0.8423912887851605,0.3361329739156106,0.1176283233533684,0.0714187477883007,0.10396911667296545,0.1152195813376809
527,-0.20366255068979144,-0.1259126477967622,0.7058474985269231,0.03219492686388306,0.10608097352664142,0.13454127321670134,0.12164114612085855,0.12010903612628313
528,-0.19294447667531808,-0.11491838929499304,0.7017766614241704,0.0008461328283476703,0.10905488169826931,0.06198637094151295,0.139001325875769,0.037472120551712965
529,-0.11285107450847676,0.007007324589162811,0.7124828513382232,-8.387243088728581e-06,0.0734084078809804,0.12044156092055688,0.0820444957539865,0.11996280975339926
530,-0.13993662163253912,-0.09665259490295275,0.8302666463789129,8.693343620281575e-06,0.1072233565466189,0.031218251661211317,0.07792979236798532,0.12208604595762022
531,0.045038046899506246,0.2941395771436779,0.7234778735356494,-0.0034722079841420506,0.11116732625911777,0.1407959408748063,0.09791456652865951,0.04750490955846573
532,-0.17511504157796629,-0.09249526564630262,1.046457183352841,5.516247388917632,0.05087601150402395,0.04340770342050231,0.12732330770654013,0.0973607327709204
533,-0.05743757172503089,0.06672208019810794,0.7493578125805652,-2.897480867897072,0.08307399045839581,0.0959819134988051,0.11365397309237275,0.12901669567327353
534,0.012088600706159747,0.01393288725224473,0.8905952364948365,-0.7572162819911447,0.0939238196719423,0.12959278318917156,0.10735733190457768,0.12119156476367762
535,-0.16145086867136746,-0.10444369809924314,0.8186947415566882,-0.09738834797985274,0.045094269005763,0.10393556151835737,0.11030816247568691,0.07145816258551548
536,-0.17433553708998334,-0.10240553917944278,0.7296974376056214,-0.007376173850819089,0.0819502815090385,0.05796642476700869,0.13611366837034594,0.10042209772740932
537,-0.1665627645988744,-0.08339138235282018,0.7315397709276154,-0.00013154959192529636,0.07110488433748839,0.10861266179816441,0.10789739596650545,0.08276919218049925
538,-0.03700372565751037,0.017623531100635137,0.7586118439140871,3.471850924980953e-07,0.02231125923497616,0.09487210939638269,0.0332832906216555,0.10147618433557845
539,-0.1599044915648536,-0.14538726038208383,0.8012860696615048,-0.00024940757199982906,0.052507042370981256,0.0945042105242299,0.06184924734246016,0.13103143309915094
540,0.21369535453059763,-0.2264033950128237,0.6774711490864856,0.3247804299947758,0.04392391444095088,0.11623507312666233,0.11357990823296671,0.08520067807657229
541,-0.15896096324820588,-0.05856961030242519,0.7066197689191919,5.118106474273378,0.06451815727854557,0.09589808940700997,0.054138615057971615,0.12400672893086262
542,2.074463071438659e-05,0.10116380589235063,0.7990834818658789,1.3959776788421705,0.09486847784337141,0.10328196508871265,0.030978398246192775,0.01245598064394356
543,-0.06716323331987178,-0.06054112275784085,0.8726117279382178,0.17117002202320752,0.1109212282636915,0.14736799760968766,0.05988493750687976,0.13016315931377315
544,-0.191872420976916,-0.12249530545415704,0.7198560776280808,0.020134050458344172,0.08310973197046755,0.08505263649275338,0.04474829953221018,0.10960745498604192
545,-0.1947773433120067,-0.12147594325456007,0.7050047289042306,0.0011576516629398527,0.09273105744267465,0.05513636600249177,0.041634993597468854,0.058781684082488336
546,-0.1788094973006393,-0.06792491749501972,0.7082680968829441,-4.0263838957788525e-06,0.04848252767126614,0.06302739454406377,0.05067202932351746,0.11474730002581951
547,-0.08600626242615755,-0.07292226593948192,0.8137791855692088,-1.774918376821907e-05,0.10107472147694092,0.10511988516852373,0.0953743357504554,0.01310382189061165
548,-0.2622222531306745,-0.09486395530350927,0.6900701019287362,-0.00046972531218974616,0.11170286165267847,0.021958013997586002,0.06258834963000184,0.04854831176599849
549,-0.3259331029626664,-0.15065292910832026,0.6093018133579532,3.7710981114421678,0.10195890358059242,0.08525134480938262,0.11236581197407226,0.1288637602608111
550,-0.160707317437811,-0.05148963443073451,0.7223075279944172,-2.6911690395286785,0.04294795045429689,0.10809787189987884,0.11470860591581611,0.03966582878897824
551,-0.0069040901750557215,0.044042081331957195,0.863219908259142,-0.1625481827763402,0.11410626623397851,0.04804155734448002,0.03851686844101771,0.06691865565577228
552,-0.184975697522311,-0.1363099345787671,0.727241138120175,0.00922795050186294,0.049417519014955634,0.07324639196265122,0.12034429655254819,0.039566443977285516
553,-0.23136471255489388,-0.15883238501791522,0.6747323696427826,0.0009776208442772419,0.09822167149682841,0.10300946517824401,0.0773139418194918,0.132854886522742
554,-0.22723718147721259,-0.1541174344767004,0.6771987968615291,-0.0001617534175786775,0.05107604370395855,0.04575433556826466,0.040182270741023936,0.12252171226856165
555,-0.1371996284887967,-0.03825426471414295,0.741392669992892,1.0368097452487755e-06,0.07371977267995804,0.07164943256504205,0.04448851435544852,0.11128812849522274
556,-0.20170395657661636,-0.14284430475967402,0.705059585495046,-3.4256144500638694e-05,0.07787450544058741,0.09203102830846534,0.06548536267915746,0.059366914028484034
557,0.24634462485110964,0.36205675905981316,1.0097248670413084,0.06430981559186141,0.11633517582528152,0.1075334003194804,0.12056235938721764,0.03648644024846126
558,-0.22165146679375394,-0.134128478782303,0.6779334508704397,6.7707286268698255,0.10544276902776908,0.058902839877116406,0.05672211770246211,0.045320299231829626
559,-0.08246725104911257,0.011449987453485522,0.7889125624695744,0.08839586373999705,0.024357369318178373,0.1219536738062841,0.11321389594763782,0.10420724997181825
560,-0.07817549606214241,-0.014784431298165757,0.8093067593741093,-0.22251743435751714,0.12117247364058079,0.058425093927493774,0.1232028971867505,0.0339010448312137
561,-0.22263666190443354,-0.1458222058792899,0.6795627678384634,-0.040037892827872915,0.06994164659230334,0.03970493027048536,0.0542908585026549,0.10489199212535964
562,-0.22175227125849192,-0.14382744987128676,0.6782059025433306,-0.0005668619280748046,0.028833271535549883,0.12925119133244817,0.07241261231134045,0.06980848090275198
563,-0.20488615493651038,-0.12598436177319972,0.690801035183992,3.220503419666615e-05,0.12158819869679588,0.046421262548373234,0.08761895927005993,0.07632380231401253
564,-0.07988760885348839,-0.006557077714865189,0.8042891433874485,-2.4179685879607734e-06,0.07060778628415942,0.09015047823709947,0.10976660565495276,0.11410586547247228
565,-0.229941931076537,-0.1519031310936253,0.6840468689439093,0.0009322989192275249,0.13112469925957795,0.038901732154105306,0.06395257060460363,0.10226200710546014
566,-0.3255485955322963,-0.24248003141740124,0.6240501649373381,2.104536877285307,0.11595994843930446,0.0426518308569502,0.05095256852012982,0.05149229715937854
567,-0.1510969672745423,-0.07937618946378577,0.730984483028151,-0.6843475414210236,0.06540207001858252,0.08969850595590516,0.10441679898517013,0.12177362595725054
568,0.02276223348032591,0.0921227950477343,0.8807400299329852,0.7868209450898238,0.07779592129249338,0.11293143823961978,0.10561327050764906,0.06155894454442944
569,-0.1318586044655745,-0.050469206773298636,0.7557282069940295,0.21237135946078484,0.09567812253886657,0.11049506234865616,0.11127062425918863,0.04640646037018516
570,-0.18746801505117056,-0.11310361780269185,0.7067221490872789,0.01706741374237961,0.09977562009495396,0.10809471016098468,0.13970729983690994,0.13139317674400572
571,-0.17802425124097138,-0.10453667923903992,0.7148193586720247,0.00021722195434739676,0.07784445482965663,0.10057198024765403,0.10235113456441702,0.08093039324420426
572,-0.10762072927603994,-0.0499227438496333,0.7799741719162375,9.534438629976266e-07,0.0745227423672968,0.02202557443160963,0.0273723242912115,0.1254252531461678
573,-0.1239179621332997,-0.034998199493604776,0.753298503892088,6.692226727209857e-05,0.08200171774316853,0.08782691090092812,0.04378404897561539,0.03554794426622042
574,0.01702494860941628,-0.08971475625301817,1.011718242347639,0.0019791310484969346,0.03593861641438771,0.09306502836149289,0.13778620618879395,0.07028153661188156
575,-0.1649423636602339,-0.10701427620915521,0.7361082628253292,6.780505689452243,0.0947017995438512,0.1137129851083854,0.12616458997146732,0.13066822099964603
576,-0.04909128984281974,-0.0035528374137664964,0.8485779864699504,-1.7030539900534964,0.07993599383643356,0.11753387093823837,0.12026162043226962,0.030259552944814562
577,0.010804715917398788,0.10075797770573491,0.8521209842004863,-0.6589637391094583,0.07710867945710523,0.10188801880069116,0.1273218492553165,0.06808760505296473
578,-0.16154505486792678,-0.07892386745883823,0.7278737175382172,-0.10205581138462466,0.09871101456756677,0.13467993008004683,0.07859750294127957,0.09099589725511548
579,-0.1733057140024513,-0.1023660977717919,0.7249175456339282,-0.005417090253562114,0.1233320685195328,0.10815577385893815,0.051646668496499196,0.07719054443638791
580,-0.16684482924732236,-0.09797933407581749,0.7382382937514268,1.599174540670245e-05,0.10241067609104013,0.12617779130153872,0.09301239633555929,0.1203570643122875
581,-0.03638725573899221,0.013410587294208909,0.8155987807640414,4.19177369063909e-06,0.05241818407970155,0.043583167930059834,0.046737815889984165,0.09819340287287306
582,-0.17689950636632162,-0.09069912687206999,0.6606136843034108,0.00013440720279643542,0.03225919625730984,0.07922106224366215,0.10663648072331745,0.04949797518589145
583,-0.13417921772923386,0.4075477060956211,0.6517167451634608,0.9560067577829241,0.08496353309396919,0.056219452966786265,0.05589551416446183,0.06948082995626197
584,-0.15896600477063472,-0.09452123537873719,0.7676609314619739,2.316553336631191,0.04415561876460433,0.08778875777016595,0.10164023200903423,0.13596085458306734
585,0.009385295952112682,0.049153323343585575,0.8801281066477459,1.4992878199315387,0.10942027200870437,0.10012835536122362,0.10956882326590602,0.06428666084036187
586,-0.12780312757378015,0.004095982402931908,0.7223645659800754,0.33612805801983353,0.08867751219078891,0.11765952700956599,0.09716694983063068,0.0913483653044194
587,-0.20705236046222103,-0.1250949965088044,0.6930701962829381,0.03207916077380887,0.056721880444369266,0.09405078063929598,0.08581405823398966,0.09450002232314454
588,-0.20681362549597385,-0.1298096556049474,0.6946409208041774,0.000835749523658536,0.044944117396015004,0.10964566504954455,0.06681909197449697,0.10567575970629052
589,-0.15011889373617618,-0.11603500938646505,0.7898248349412841,-8.248502623396255e-06,0.09964559405846063,0.12536233305027744,0.12058645118922931,0.051821385846390525
590,-0.16688403713070335,-0.024751952633909446,0.6971936092759986,9.772805709886883e-06,0.08197650949508559,0.047949337910878284,0.11554652494265431,0.09034060820081509
591,0.002856434742228131,-0.19363832865296216,1.053698248763923,-0.0034843959893117084,0.020050236478433014,0.04885599937322246,0.04527321436308886,0.12087516397610118
592,-0.21541616945295364,-0.2494730856953653,0.6803119341363199,5.543194045557604,0.05332624305464611,0.12941334486680067,0.08996021693376857,0.07023784902347877
593,-0.09522896500392702,-0.09201856537682429,0.8131673876136035,-2.8875119858557188,0.07981697322190322,0.09025298798254094,0.12429163228310745,0.0374530317181676
594,-0.07091045055020095,0.05028621472483091,0.7745561505919855,-0.7609473227526435,0.0978430240732307,0.07427816406389198,0.05964446138618938,0.07483051852754218
595,-0.22549603835252582,-0.1244468786436565,0.6625403551450849,-0.09824979660133445,0.06615016964861743,0.0333690105324003,0.04948466565033982,0.08700695491465364
596,-0.23010883980014668,-0.15845384002762977,0.6626054569699033,-0.007417169462084791,0.03443991678702305,0.13539702880349824,0.05435161779754133,0.09055102756246865
597,-0.21725974815260513,-0.15273444643196724,0.6771101506118079,-0.00012903822750187806,0.11153232562846714,0.05470074527792634,0.07127273982811143,0.0456847642265371
598,-0.10212662199568118,-0.04178796262091322,0.77802722530189,3.9772576485644813e-07,0.07447094155347317,0.07350235845102757,0.08391817366497306,0.11547102859224274
599,-0.26609619941640306,-0.13442655694566114,0.6470993400127666,-0.0002502606944054307,0.08277670255441381,0.1274496836713718,0.04575640319253309,0.06753479107768895
600,-0.33402200449912606,0.27171495211376817,0.5712169402217385,0.3317215595105603,0.08032517933935461,0.0826208255908326,0.14044892342244075,0.11357533927446009
601,-0.16687381336343662,-0.13303870803696066,0.7067222822528666,5.079154265728955,0.07105814009211071,0.08781836134052513,0.032503662382407865,0.12641837366184067
602,-0.004861537603041088,0.029318126415376622,0.8583505113035351,1.4075507263151366,0.08842442309500627,0.07480855968254714,0.059272309837516086,0.10771831448524219
603,-0.1743447502065374,-0.04602529613074474,0.742742845956822,0.17625058141042385,0.1302534257518771,0.06409767939694322,0.07958607972690013,0.08099215217027503
604,-0.21426113245043582,-0.1415620970205661,0.6793810506743517,0.020730773232796595,0.08572763172982122,0.06853441077511856,0.060846480257695214,0.08539245148360092
605,-0.20368239449569447,-0.13364753924923017,0.6876703418858435,0.0011631040286404655,0.06444430005835751,0.08637863404635385,0.0721364822006455,0.10518277817713464
606,-0.10870981855582101,-0.0930406978410181,0.7241362414362754,-4.398647408277719e-06,0.06064299099766452,0.0784415581504066,0.09979630468999368,0.13325676909136203
607,-0.16612367427371524,-0.05048204935712858,0.7749277818256891,-1.781149645095793e-05,0.035378952904917695,0.08476786558875413,0.10414000497312256,0.06603311759259407
608,0.2803408936084575,-0.13514319492969956,0.6328152994592543,-0.00052618859102073,0.03802163751312102,0.06959236589529035,0.08960127695035028,0.08425777374119599
609,-0.18637297330847077,-0.1269605577356125,0.6414717485467917,3.8010903531505953,0.0518188346039885,0.12672091685907153,0.04044549540151249,0.0737753844252834
610,-0.04882208411071165,-0.0176923141884876,0.7641307776487788,-2.7093085450031764,0.12126827922385461,0.09552830364174987,0.11504368562312195,0.047643644739258424
611,-0.02130000071312571,0.07817601897329951,0.8942514394156412,-0.17708536030089705,0.10760230070253256,0.04813869343215306,0.10023061993739123,0.11719613304547058
612,-0.17779852692873008,-0.09072959003093217,0.7440416985997215,0.006488618076182696,0.12177012385570882,0.04196413933674264,0.09728358661264001,0.12238626968770243
613,-0.18147316913725697,-0.10424604224756878,0.7127036488658626,0.000756559913884871,0.04445321280325813,0.05188359444267457,0.09959365564899159,0.013460616905589216
614,-0.1695141793614207,-0.09481388183200012,0.7199753375195576,-0.0001641911677502394,0.11583106735800316,0.058481331259653914,0.07038148371976598,0.10427580596554492
615,-0.03243528952569735,0.03260358900811411,0.7977733571725779,9.953367646679642e-07,0.11078397841463199,0.131739839535856,0.058141882513116444,0.12162794449376174
616,-0.1682851029817006,-0.08966143715855096,0.7504032747179151,-3.8317373338619845e-05,0.11889758623697896,0.08185638629398558,0.060231420055342585,0.1056472639255841
617,-0.0398791306239788,0.07872751757836982,1.0411963784971356,0.06660653375478595,0.09787257530770574,0.07879866822496735,0.09016317502041195,0.0553419599820316
618,-0.1446975256359363,-0.07554496053611376,0.7322392887869321,6.755854868097976,0.10154737390723924,0.1079008708999863,0.059722158822563,0.07215441311149284
619,0.02479540220146431,0.08831460158921128,0.8380762058026386,0.11745923706151748,0.0687953131109477,0.12392458956528224,0.05547351277483713,0.06600766379433413
620,-0.07503520051503265,-0.011745266160237744,0.8637093384153648,-0.21489136656388355,0.11003650664418257,0.07968134228113105,0.033254125108540374,0.04644782492917022
621,-0.18090497645891393,-0.10910611316871344,0.7228283450565626,-0.03881261831702439,0.11432873284326002,0.1141380983375031,0.049655044758517126,0.11120386640401865
622,-0.18113332771779422,-0.10896792027637797,0.7139376551645588,-0.0005093248454149656,0.11599927697555923,0.07046800541295378,0.10030876962553555,0.09952471556331512
623,-0.15708169533671115,-0.08011174351040296,0.7188323979793471,3.168321313481437e-05,0.09940781539368573,0.07455304095483797,0.08931586463188981,0.08182512866971967
624,-0.08446136085798761,-0.029020771598857298,0.8278125117297349,-2.7029561516631223e-06,0.08579423294225513,0.060700857607177486,0.0715587398678998,0.12211526618142647
625,-0.268639318308473,-0.1865988287601028,0.704548681567284,0.0009352120483227561,0.04505183770586769,0.06839800632150969,0.04518769872831451,0.11742677834040974
626,-0.2886439928639704,-0.16416814041267744,0.6928508648532753,2.129042653310119,0.04228041501672036,0.11130130811437404,0.05293047274296786,0.09288980662045832
627,-0.14320725836820059,-0.05264583676438506,0.7234928123938119,-0.7297355114004566,0.11133257511260398,0.08210762492980483,0.09385149870683779,0.06741259270145002
628,0.0002434544343778433,0.06505171255057085,0.8671318482839311,0.771241121034692,0.07695216884655161,0.08612744718474631,0.0962328195533392,0.10121897048271608
629,-0.18408537275138218,-0.11665783883197733,0.7593429196492979,0.20894515573169636,0.0763722429312338,0.04721730316654207,0.058823841734759325,0.08941210607419837
630,-0.22391114410789367,-0.14680818367435938,0.6809461445214363,0.016768421460440303,0.0653044090882682,0.10325340880158751,0.131337131967766,0.0910140572095578
631,-0.22120855206660509,-0.14399459648937513,0.6812127229736228,0.0002079229272856127,0.07800175638964797,0.08746131595738826,0.07361922515717034,0.06378936730426277
632,-0.12023581839020092,-0.03431449161020628,0.7105210867744377,1.0321332570410219e-06,0.11180071781979035,0.11212307474121164,0.09559065882329044,0.08280505052499061
633,-0.20611059739562468,-0.13748869164537014,0.7494227027446189,6.712613533835621e-05,0.10697760171622156,0.10417520801569277,0.08680056968467613,0.042823511559847205
634,0.3011716650106284,0.3236680805260811,0.6192133372631584,0.0022381388126934076,0.0462190192656374,0.08558946114727517,0.1028961536089351,0.06001170526235635
635,-0.2250542770443719,-0.1447992517430347,0.6354732530712935,6.792746358098599,0.05114404454153748,0.034460550686184234,0.07575496704958323,0.09732606029101351
636,-0.07912905738683457,0.006999326789506821,0.7380283707754515,-1.675284362564344,0.06794307173320258,0.06155292815338672,0.08341508974549819,0.044094939269625696
637,-0.09656305196122061,-0.04117396490687519,0.8537716225983857,-0.6531457561894032,0.12849312485287098,0.027390034758077036,0.06165796529434812,0.03573253083027765
638,-0.23453961629244158,-0.16082020491871665,0.6982672750465885,-0.10139732153243021,0.07040544345374816,0.07415322647073697,0.03504838908395982,0.11431835770455097
639,-0.23373385409378322,-0.15765243550706817,0.6707290944811221,-0.005334874345715817,0.08024601188572963,0.08686039788010409,0.05231946597783649,0.04038579194450765
640,-0.21628346020468528,-0.13515252213851592,0.6775279486054088,1.737239082347157e-05,0.07692356303025759,0.06510223308843935,0.09084167604618694,0.1112553464637171
641,-0.09705881388813603,-0.041843125086487465,0.7635131063295165,4.2160424006631485e-06,0.08005119931114818,0.06918158431752887,0.04058067431492146,0.11592507004125203
642,-0.25094383311157775,-0.2123992585431863,0.7061008184946312,0.00014965937200722254,0.13109576307694346,0.07973214069415732,0.1050840198033929,0.08543640779561133
643,-0.34458543496262356,-0.23454503117325917,1.073730962900052,0.9704636019868322,0.09749781637871952,0.03441822870235449,0.13797916025751225,0.0770221044458662
644,-0.16617160047398383,-0.08080414952711218,0.7028386680240423,2.2651378279989216,0.1272758012974291,0.06938218489859035,0.024642832585377306,0.08570726804271189
645,0.010552844078208612,0.0745005927461348,0.8197529564346143,1.4924220353988225,0.0625428185532172,0.061613132510560935,0.0513347697637716,0.1207715182945864
646,-0.13875207102568166,-0.09175212519421627,0.8346868134710866,0.336032657846405,0.04659555398175832,0.09222900813787692,0.09739908210299156,0.10948551992742445
647,-0.20216838723260727,-0.1296476546990319,0.7073772513567421,0.031956006766503946,0.07523718528612582,0.10277913602024806,0.09498509750430752,0.055295484081516674
648,-0.19229618750704217,-0.11918562984954484,0.7070484136630352,0.0008253346300354314,0.08001735167226512,0.0965715640679698,0.07741074658809698,0.04591490327821776
649,-0.13867533138662747,-0.03364198189700324,0.7204873604188523,-8.106110793203386e-06,0.08969936474746427,0.04131951376327814,0.09735949137578877,0.06813955975076333
650,-0.10950794065966474,-0.07566085478508178,0.8326935503297469,1.0868005183560205e-05,0.09001734177752524,0.08122149569994155,0.0671084737735284,0.09210234313421066
651,-0.2248458343801478,0.21552334038103194,0.7107129116729564,-0.0034942498527761844,0.09628978096456865,0.1089449824768591,0.09632546509273568,0.0781294789328478
652,-0.20919896227929627,-0.10313561911316399,0.6462000851887103,5.5700062674409745,0.009152208952652154,0.09204701790312923,0.06447825762830141,0.10830947104897774
653,-0.09400854649938672,0.016063783764170003,0.7551235417240519,-2.8771608421591557,0.11674740599041655,0.05009215388039481,0.07914137334574045,0.09647941264622345
654,0.040035816149293246,0.07202836904996468,0.9009903881471545,-0.7644575500551299,0.09471597695953284,0.08601721479001481,0.09688771261595047,0.07278345241876166
655,-0.14289126925329315,-0.09303787024810828,0.7691893141975247,-0.09908292864476428,0.0816965930878752,0.09891817276138001,0.1088532313066787,0.079301350886266
656,-0.17547051304344585,-0.10401991297092017,0.7212234041575817,-0.0074549036255712455,0.08424034293385979,0.031473473894844596,0.06017301407883292,0.04770638035889671
657,-0.16907274237780517,-0.09593536021098131,0.7259107204129461,-0.00012649614518596948,0.06754537375382005,0.0997951320770247,0.07933087402878154,0.1249704675712403
658,-0.07518132721574022,0.03169548823588608,0.79594942493277,4.5033261598132467e-07,0.07977633515371113,0.08089803482491016,0.038259719721767095,0.07954853535931179
659,-0.139424318778816,-0.09177621246603562,0.7493318487277346,-0.0002509457360286871,0.11094092402136697,0.04722570211388328,0.05473254382591768,0.059437355688962815
660,0.20118750630761129,0.26578067832202734,1.1220611754900127,0.33876312026239835,0.11899778137060107,0.037552002607913595,0.03711822228585829,0.10191617461043224
661,-0.163173298083682,-0.08928196222938384,0.727893151230924,5.039897393448132,0.10199376526514446,0.08161980681576796,0.11219361249880933,0.06612519458583539
662,-0.036801377616922815,0.06476985218572368,0.8457673200227022,1.418741914644709,0.11653707321820295,0.04651973956121123,0.06560495187297094,0.071726768687864
663,-0.022664769390276174,0.0030690275020834323,0.8241608952004048,0.18126620060163195,0.06388888505101187,0.08604313236748919,0.08004885430339788,0.09556680234009093
664,-0.181611315458412,-0.12065495438045631,0.708217034071191,0.021311169964365606,0.08749299135055665,0.08189639100256757,0.07874798696370554,0.11026079516629742
665,-0.19109717378948543,-0.12378640086091813,0.7042974124136668,0.0011679959315841072,0.047841645922187176,0.06434501059791506,0.04715556956289141,0.037829416757836826
666,-0.18423125232788332,-0.10991992880684176,0.7184231226525745,-4.757608667223011e-06,0.11039065762760995,0.09219998721686451,0.08024328758043586,0.09120564166026254
667,-0.06503256947226416,-0.011958905925152197,0.7860990249315699,-1.786177882576212e-05,0.045153800357236616,0.0815772456870058,0.11450892122273995,0.13038999337443988
668,-0.21965037085408595,-0.17708596711905986,0.6313681906609926,-0.0005834506184951628,0.08610476083298554,0.08452040328272034,0.07412631864398586,0.05714715916356201
669,-0.3237822771283654,-0.2634757140751217,0.6332767418246442,3.8311022974847755,0.07825966576366937,0.09093648188791859,0.11269475198371494,0.07669638631192217
670,-0.16983163609273255,-0.09713692531518137,0.7449021173435496,-2.7268917819077,0.06119179100589264,0.0858286248808706,0.06965638735004792,0.10505107370950911
671,-0.010046119691486943,0.057435003200920265,0.8556164595991388,-0.1915200998307497,0.04529498705790353,0.06715480652172716,0.052316096622169406,0.10109337475110029
672,-0.1802363798502557,-0.10976158099408995,0.6978952402370341,0.00378376254040624,0.06054562998352647,0.10215902750144121,0.06753190073977407,0.0487647981627182
673,-0.2282439296943393,-0.15960370602804114,0.672061719199914,0.0005377004406821211,0.10198966539128557,0.08852439648095935,0.10585975715087219,0.04382910060189045
674,-0.22457547357760935,-0.15585032536831936,0.6758796577384406,-0.00016649559170035634,0.11574050207505772,0.05657565573415477,0.02554913637412528,0.07631636652052542
675,-0.12495175338734854,-0.07413141799878936,0.7761885706319228,9.5371321417366e-07,0.11273951313716124,0.08067605245695347,0.09896734827671956,0.10669646798389107
676,-0.20883700728314664,-0.12654653694072476,0.6832022450947252,-4.243546563541819e-05,0.07477323945040666,0.06039248511701914,0.11153983925325917,0.12846984212077983
677,0.2783481524795056,0.2553038677647268,1.018433191988711,0.06895954913048252,0.10009085650744354,0.09658611825091688,0.09743025576415563,0.07448691139806034
678,-0.2192295027601659,-0.14985250646549164,0.6844261014138017,6.7404825520171405,0.05675779867085817,0.04336156209063732,0.07402367710581231,0.10446490768097642
679,-0.05979384898158063,-0.017808641882531284,0.8243905235232806,0.14638126387096195,0.06432713402867936,0.09252065137367739,0.059525725092904186,0.0795681510153708
680,-0.11224866551507423,-0.007588941717743269,0.7687728466599323,-0.20728635117136385,0.05432668273491756,0.050795255743406875,0.07737098397681545,0.09004209719787219
681,-0.2280242397233305,-0.14989374732778815,0.6736169283720109,-0.0375882201689916,0.1053008536315295,0.038855487151675916,0.06511966500022112,0.06544902248233199
682,-0.22179546238635262,-0.14911621615076742,0.6786078844513516,-0.0004529615213585053,0.07649836628108342,0.09011055559180525,0.09208088421694843,0.13087190350649724
683,-0.1932044755898323,-0.13181059583132237,0.7028891913223004,3.114729534561834e-05,0.044537279749668326,0.04686448776768383,0.08453183539341058,0.04972318229379284
684,-0.11226204764611264,-0.01395515940243347,0.776988212641646,-2.992242436972434e-06,0.03471631072448576,0.10198807290102342,0.10971432215172057,0.1398642810638991
685,-0.28245006311273413,-0.16328440334220493,0.6316299369177248,0.0009374917810833884,0.05561624400047655,0.12441484640766697,0.03484537086859807,0.08121004914076133
686,-0.25752608329259485,-0.2516606092737372,0.6265910823073767,2.1537101092181046,0.029008111068350717,0.08960692872396116,0.08529046354661392,0.10052826325720887
687,-0.12493562158674792,-0.07704231495394093,0.7551605884344258,-0.7748382979044123,0.07239331564253813,0.045269497107130414,0.05772563575679387,0.10167961187671574
688,0.019965687517117747,0.08755478626054486,0.883503830292545,0.7555965800083889,0.06155105010165269,0.08822951632162519,0.03947716090709184,0.061624529320565835
689,-0.15841967807625965,-0.07015665815435729,0.7344624672371468,0.20549787648726747,0.08091075622937063,0.07888390313698992,0.06293198326232786,0.05143984290565883
690,-0.18821239136786594,-0.11486330519018628,0.7074337313065603,0.016469867431718313,0.06947671046763078,0.07724316396688057,0.042680510649765996,0.12563428775697888
691,-0.1780347249903793,-0.10553187172669759,0.7160917690188101,0.0001986928632756154,0.0734104578415237,0.12101050906980232,0.04429661137382438,0.08166168970047802
692,-0.07472906074372959,-0.022395049042677084,0.8050511604009748,1.1070099088862977e-06,0.09617227970256141,0.05118142164788508,0.09776045075865744,0.034864306694236694
693,-0.14644101608635535,-0.06671129711380325,0.7405997743690812,6.728441233943959e-05,0.04592029765262352,0.07568399100727378,0.06833363233199569,0.07407721954998496
694,0.3201222203334815,0.2821978109353789,1.1708808218139581,0.0025098295204419247,0.06840021846118115,0.13077673899635056,0.062105542501051096,0.10988825108486226
695,-0.15704264905808807,-0.08961932782862941,0.7352349384336813,6.804633411264397,0.11316495769402024,0.060114895608786426,0.09525292864549913,0.05117666627739617
696,-0.019656044606666534,0.03650478288790937,0.8563987270782011,-1.6473354265790547,0.042589581569683815,0.06740657469930539,0.12543154853199656,0.06168081496178713
697,-0.01393923964150695,0.0584436949325528,0.8494705386402087,-0.647236153651209,0.10482854636532705,0.0961014946955179,0.08166146448468817,0.05011506308392263
698,-0.16629504355619096,-0.09507737212918793,0.725300065318868,-0.10071931333997475,0.09750179350937324,0.09594950534671581,0.10624718509265457,0.097798412486869
699,-0.171423703682642,-0.10136944308871115,0.7220390527973867,-0.0052519023550693855,0.10926452185945827,0.03780472035456432,0.10516777497494129,0.06158854290222485
700,-0.1611020500534868,-0.09271896497827548,0.7317719628839662,1.870399813052168e-05,0.1060907231042929,0.09687393872028882,0.10335852406675038,0.12230779700957654
701,-0.040419775651573064,0.028304580672294077,0.8305427549863392,4.237295792439089e-06,0.044558757448714674,0.022278300547182817,0.1180431481544693,0.10140828325275536
702,-0.19357720075850993,-0.11693418155998814,0.6955519554164357,0.00016511760353088762,0.096216832024987,0.049860870982737615,0.11764412762540469,0.07297236526197222
703,-0.2941565867983554,-0.20425372778646347,0.6074156304329174,0.9850683776915327,0.03196229460532252,0.11450944726751615,0.043619135223123245,0.02195152009595634
704,-0.14659945959695558,-0.07742509279821547,0.7473640720884832,2.213645087648154,0.09336790606668664,0.12410692476502991,0.10544223140488133,0.10386749851474335
705,0.013910798490440468,0.08410820673129166,0.8869999982511,1.4853333213683648,0.03735413451878062,0.11488230733007695,0.12418418545515693,0.04636157820433792
706,-0.15512930246039122,-0.06852298707890075,0.7488786196553073,0.33584791661640045,0.09252731624468637,0.0955865511827845,0.07198777790994462,0.03380761752430703
707,-0.20731974363785602,-0.13347964791264638,0.6928518087912486,0.03182561452590204,0.03373267875106576,0.08074317280004588,0.07280444212750375,0.07667548953186568
708,-0.20608803608161377,-0.1328363607124935,0.6937327800729892,0.0008148898036544073,0.09259012747779395,0.02450524789532941,0.07624809659428237,0.04746578383688374
709,-0.11301258890248794,-0.06868373766797697,0.7441152217099339,-7.960229218480698e-06,0.11857943420286418,0.04164880846134174,0.057971324468393565,0.06288119768169431
710,-0.19460004697212632,-0.1004609718058192,0.7291391945552564,1.1977931909703113e-05,0.11408869802076624,0.12347658196213303,0.08693859026765767,0.05454319388066583
711,0.30093495689544447,0.1286947048982593,0.8028830537047881,-0.003501717109028165,0.04563097659416759,0.10150680673893125,0.13321926924255043,0.104058222394451
712,-0.21330280703247087,-0.14548130605193083,0.6790965450360477,5.596680444475671,0.05251033051303314,0.073490478985795,0.02843296309197373,0.03464876628072018
713,-0.06051981100284298,-0.027780245658122815,0.7693256711721422,-2.866430350846389,0.09045087644050162,0.04088989552287502,0.08086743537269583,0.06060283438963905
714,-0.11527027154603653,0.00015601186584263127,0.8346310318871052,-0.7677490918306499,0.06753222187253433,0.0821637303617896,0.07287515858955677,0.09847131642989344
715,-0.23409041777477593,-0.15391856567066461,0.6830077130163009,-0.09988784727490843,0.05952609479448222,0.07477290794701433,0.08726722658691528,0.07926018260207117
716,-0.2321397758011662,-0.15966332422381896,0.6692658082696065,-0.0074894176067625,0.026926965839194312,0.07395951815549139,0.10479503001879349,0.10551022148799793
717,-0.20432154253027274,-0.14908209425809876,0.6752379222746222,-0.00012392506332620554,0.07687169291790484,0.09846134854826954,0.06007147197764605,0.14177842487588752
718,-0.138969768201742,-0.025397778313697716,0.7861771970009795,5.049219493149086e-07,0.026817897512798786,0.11154351890425358,0.06615097626318966,0.10523279005501322
719,-0.26969179380672803,-0.16690886278315742,0.6868208934376977,-0.00025145892980071556,0.06542128318620988,0.09577365599661526,0.1317533263814832,0.07622659528056357
720,-0.24492273610751475,-0.25916501002250447,1.0059820844942409,0.34590589462004684,0.06814096516783057,0.033935667765034865,0.10162456009959926,0.05172221586199098
721,-0.1303122188456548,-0.10756095533301102,0.6918931932440265,5.000339104504226,0.10417572746873563,0.12521900279707954,0.07102146102184512,0.08759989665421897
722,0.0012202536344709247,0.062120891546909585,0.8312654769508973,1.4295538615372814,0.05048639945516076,0.10717669674763625,0.025895712245197808,0.12138889714490116
723,-0.18054241181914096,-0.0817001373046532,0.7857527422280174,0.18621614462217942,0.09873408333741328,0.09935453928891998,0.04689076709745648,0.11406401371374798
724,-0.207907210127316,-0.14109689478414117,0.6840635673621059,0.021875390336984945,0.08738639933989518,0.07462728404793255,0.037751714100014044,0.09056030266664851
725,-0.19767820637042693,-0.13152347851982504,0.6890795722445081,0.0011723376424393854,0.042434571166867885,0.08489474642638956,0.10387299155694327,0.061318931767211274
