,ecg1,ecg2,ecg3,ecg4,emg1,emg2,emg3,emg4
0,1.1060654500863953,1.0955812851186821,1.0746336809542276,0.980083706184964,0.10395374083838452,0.06206845827663564,0.050444661892563615,0.010116385486701941
1,-0.07905633460751987,-0.030578799451831506,-0.0980531501282621,0.06826986745822017,0.05765894024737307,0.04137319023230135,0.021073435835661937,0.057435713110754155
2,0.2603398772588964,0.31395964603701243,0.23799174875429074,0.32737279772795846,0.02457550792995505,0.10779729479290305,0.07425780801497245,0.03539709074505749
3,0.21771331075587885,0.19601995927684157,0.19511491371374035,0.30125862264625436,0.048370942696565514,0.0708525646274026,0.0573590630436288,0.10561962543098861
4,-0.08474557085789125,-0.0523566899118158,-0.10384845151331346,0.0655033627653156,0.07105807740083744,0.04627779591971883,0.0480739713710643,0.046882089603136716
5,-0.07826921187997643,-0.04008875128656081,-0.09736640112858619,0.06976179892648116,0.09091859642332728,0.11993574715551905,0.11884213722295811,0.1131227921368257
6,-0.03417276710722972,0.039415793021931766,-0.05349626221811438,0.10151045720677365,0.0639796664579843,0.10927151992709211,0.08586456617131111,0.01835328373805636
7,0.23774114912130784,0.15463764178202388,0.21463450666559625,0.3190313479325847,0.09909649572686106,0.07059088250048536,0.031611752684004985,0.08716635536117948
8,-0.11656544043744266,-0.10858358979657123,-0.13072236703472334,0.06504500347275394,0.12936854435072573,0.05371130270003177,0.09655361077248974,0.08332831853416696
9,-0.3128718180419412,-0.034471316543229436,-0.33140984517606314,-0.09319655024563644,0.07085645925515886,0.09340069702629034,0.09501190964730795,0.0674247267708189
10,0.07309683530557626,0.21603432891065288,0.05518039661850138,0.18303402991289974,0.11557727176313498,0.11060378776247196,0.07615336914322866,0.0627560504811585
11,0.46098394865414904,0.4165728574091998,0.4407952249538456,0.48522222738933296,0.052223717267171045,0.0634642589180117,0.09084243240443785,0.0856006389671504
12,0.10936175910473533,0.03551246676627018,0.09770576825288418,0.23130660285732074,0.08702080956799566,0.059224494971893686,0.1112254862427344,0.05968659831263705
13,-0.01682409820254077,0.01097516294788492,-0.034749810690564154,0.12068223860533911,0.10075717526431492,0.10814920122038962,0.037591079239732275,0.10383153421159239
14,0.00011102234015991641,0.032890636021613906,-0.01848156748881502,0.13301182700816883,0.09104170121399621,0.0426178035119309,0.11179740659846933,0.0701233862579565
15,0.15675886981819287,0.32386813964427996,0.1213005621330443,0.23424405148785954,0.0614502806141631,0.03703035600320129,0.07305969425784747,0.059550599361771143
16,0.11162307742183386,0.024568076060393407,0.10969350378602072,0.2383253035112196,0.11515313829596643,0.0589662299841675,0.11070984824745761,0.0881033899445717
17,0.42633836888793886,-0.057349546635647675,0.17477087574551653,0.24635807173760138,0.11573226998909757,0.12191625899497299,0.06106179017528091,0.10619829975415315
18,0.00987354232584603,0.09334641234280994,-0.02500960682847958,0.12976396886064623,0.033808464884697804,0.06147842928770944,0.07517195094722885,0.05725657088122914
19,0.2645064237487411,0.47315897730719736,0.21724227867294743,0.3104476127284693,0.10382143045261205,0.08192246861154688,0.0294992353670512,0.08978525897238211
20,0.3937972035058377,0.18053903444840158,0.36747639666369947,0.46718648665714946,0.10748330052298476,0.03989037021877006,0.06557395107094548,0.08643931446691713
21,0.002154378949278113,-0.007483181820948592,-0.01922417659875142,0.14898697594456445,0.05453071799359172,0.08319954715406697,0.10154658944495536,0.03899378689402892
22,-0.028589659618017127,-0.005994149301349561,-0.05192813114804895,0.1113997641755009,0.12010197925653912,0.13696575370689032,0.07880236922008832,0.11182013075176887
23,-0.01791839714670168,0.08081411400019384,-0.041277153821739576,0.1167138032422731,0.05850136160951521,0.09284704421100635,0.0969055909297595,0.07980457920143498
24,0.27201476310179407,0.14250299526428167,0.2445135019722059,0.32462935427066686,0.08456158883524167,0.036883942782209925,0.040149558293755126,0.10112308019154632
25,-0.04208363329842563,-0.12188368591643506,-0.06641842489936484,0.11653941907078047,0.07732366114482046,0.10498039776425681,0.06547077016806839,0.06986444390042022
26,0.09148558819969349,-0.10134448516661126,-0.011404718146217963,0.8573715914272119,0.04394875090567524,0.10680614806157995,0.09771855711976235,0.1097919952023648
27,-0.00736663693303774,0.1308847340199768,-0.023387429226780887,0.11047074547541635,0.12106873838800236,0.03964131158754235,0.11572311011930946,0.0984470329633222
28,0.3690219483772066,0.38744955156645655,0.34980968146840297,0.37744351294228295,0.13219797654876225,0.02858861939687729,0.11502066282726575,0.11230894466584032
29,0.08717496914499895,-0.028858661402391295,0.03913234705341129,0.27102350454949564,0.1312326772781295,0.10089224236480412,0.05624593342296654,0.0922931282485489
30,-0.11172469128109985,-0.09938612601534014,-0.13166592932691867,0.05391567725556434,0.09503927492403613,0.06969399424159642,0.03584633487202365,0.08974616759668963
31,-0.11018260251800355,-0.09329757180248777,-0.1293045808830136,0.049421172388807,0.12057052398104512,0.0715568232875907,0.08381818714842261,0.09632066424945279
32,-0.015386120731408659,0.14109045510146223,0.004142983525179,0.07827821773886762,0.10791833269609087,0.1206253339453037,0.05159706072667458,0.04822086278274969
33,0.03212084873995119,-0.06541746919017627,-0.040291943783834994,0.23881878879750607,0.08881478135338718,0.08617929961776764,0.046288302566291725,0.05387249883974786
34,-0.12520569572150902,1.0788084401067155,0.4394410130886587,-0.06147523102808966,0.026133675582715454,0.07585550516247937,0.07005760020595513,0.0638962421872288
35,-0.14986642425383068,-0.07712596454318565,-0.15339237900905867,-0.16453833729970696,0.11519874610033871,0.031149125031451973,0.05917734022735262,0.08835943030959872
36,0.08876349410047518,0.24473978417552789,0.10862230301170461,0.12392461926427001,0.07104579591856007,0.057680532614727074,0.03973895063633606,0.11697416353670882
37,0.3003287299353258,0.1886579456583114,0.2185602976013683,0.38986555521983757,0.03743173157967366,0.06774912518346382,0.08077943146255712,0.10371001863180644
38,-0.09993434333238632,-0.10953248052997844,-0.14837514855225953,0.08773422954370291,0.08975731098327461,0.08471702382589828,0.043836892573968216,0.09033200182050759
39,-0.13407263695071714,-0.1084708002589127,-0.16368188746297463,0.023312310210496512,0.09799943862864818,0.04665133196236566,0.10675906872811965,0.09885253903939928
40,-0.11402284760650261,-0.06442235133561314,-0.1393488127650077,0.03771320930542149,0.039785937901048646,0.09608310731099927,0.030571506631003845,0.08560731788103348
41,0.1842651676926509,0.16676163375961417,0.16544119389481826,0.2172571153118641,0.0685892226179962,0.09758238902307746,0.07539336491328597,0.08122725623084066
42,-0.08796596780352695,-0.19929922398129288,-0.1303235976835042,0.08526578360913661,0.1226735583949325,0.04755807091427024,0.10132544340457947,0.11125075625232035
43,0.4733143920911178,-0.32483007719406,-0.03641734999954366,0.9626655787537103,0.04535105998014051,0.1321365494029091,0.11907497885293855,0.10405838846159907
44,-0.045241428595195365,0.05467703927081419,-0.06747094693028055,0.08615299406122562,0.05833482866603911,0.10831003578213996,0.12300431890032289,0.05325574933299595
45,0.34308267125927905,0.40226105090842235,0.3283850870321271,0.35466930920530126,0.0324951649361952,0.023712801240322587,0.056279095681477216,0.07679860485803648
46,0.15523673230169877,0.02211663804524644,0.12252772910264309,0.2880997953310933,0.08984045147521322,0.04586798747865036,0.07527599956964708,0.09182914767165756
47,-0.07044024854546527,-0.05273998762659754,-0.10200846148733561,0.08518865307372087,0.14439421111138234,0.037073260500595666,0.08569176826487557,0.10159857207137239
48,-0.05271204369665572,-0.0289878356209462,-0.08426117286153689,0.09546241385689869,0.10657377940134075,0.07667759843554173,0.09110657217612102,0.023558843521821037
49,0.023792522848152142,0.21099736409498482,-0.022877049342062306,0.14606690700150593,0.07491776648792615,0.11424713099147643,0.09096343379576763,0.04557948818941157
50,0.1848343795240992,0.028670980757101006,0.2089328562125533,0.28065653011410685,0.10870432141064174,0.0658718145971377,0.08325336807385383,0.007757711688788683
51,-0.19540754655544781,1.162971219276875,-0.14983087568017422,-0.007395212920841776,0.09755793492209529,0.03560456731701171,0.053233664120675206,0.06351409989010479
52,-0.15420553242822704,0.007660345366234056,-0.3313347224232405,0.036796750187699456,0.08232677409016868,0.11937696361204028,0.11213086400553865,0.05020844280273639
53,0.14794711584777787,0.345313357582684,0.0600714558125221,0.2580031306221293,0.014225597862599217,0.08119112589298573,0.03160489793914951,0.06539410463204832
54,0.46250302084062156,0.2925338738707005,0.44453134268612116,0.4769645724003261,0.03590524964390066,0.08475978804227502,0.08265567385913462,0.07139971900717892
55,0.05693870215414221,-0.003105967580240565,0.09627878405667017,0.16586461959814858,0.1171909520879396,0.08713997803211573,0.08082324714166308,0.06374718835083673
56,-0.012276801780263413,-0.003042162916311819,-0.04325726303316152,0.12667184723821978,0.12176906038551176,0.07999614851460897,0.10379322046366189,0.033646089472044526
57,0.002495153287168206,0.031119749851501066,-0.03056556019279072,0.13870348821462597,0.06561298188713437,0.04075228897560297,0.08072165628303851,0.10638461889570419
58,0.24325175538261956,0.2872949235963643,0.09066710579793325,0.35046275156139284,0.14428101501349616,0.04177137376384038,0.09273837618302139,0.12831780543532156
59,0.039015769317245985,-0.06964679890406622,0.11258574262133803,0.14810017073023196,0.10531610518380827,0.031981467988816924,0.09822589929525778,0.1300893470568122
60,1.1916130140790857,-0.2801563543864112,-0.04087572407783058,0.6428557402597986,0.0823336404688893,0.07844353269867443,0.06671955002450808,0.07313765372231412
61,0.017945027622252363,0.08086736780265452,-0.05705471645046972,0.14570664560008062,0.05628115992592468,0.11763935115026727,0.07706458432485531,0.07631023370877242
62,0.3458307573933411,0.4554395751054662,0.1767165313766038,0.42757608846556383,0.09613010594538944,0.08207039277728305,0.08650737436988772,0.035258148222405056
63,0.26526764443583317,0.11953081262589538,0.36393512050106624,0.2785169405315937,0.13118714268160236,0.04350923874010978,0.04916002011101495,0.02567528810740935
64,-0.04141546489673753,-0.04820730621041236,-0.03750480054263189,0.08794040640711986,0.028561160135645906,0.10064980812478555,0.07060959411448418,0.08162206753622957
65,-0.05166128242888335,-0.04691042977282056,-0.08082397559596416,0.08573880569650366,0.14333996246465686,0.1272790822298673,0.10401622691768542,0.08727386753341856
66,-0.019349956151316183,0.04379302019909187,-0.07307061598340903,0.12758447057845812,0.03639606826828982,0.1118539482553188,0.06046065260039845,0.117141431467059
67,0.18979018010422544,0.10647873934691365,0.21006661760313816,0.23786352985674597,0.10998988327225741,0.013368193788105973,0.10648501954438815,0.08610707089235081
68,-0.2106954387773866,-0.19715234248379931,-0.09217858555418623,-0.06473742515491376,0.12013380319696308,0.12091591779882391,0.03749455874563693,0.10960996258151291
69,-0.30473445796820187,-0.1612826476953183,0.1002868052197825,-0.05099272645773417,0.06681362388584469,0.056504092237074866,0.06446001640270614,0.04754831387087114
70,0.031789684656171324,0.08135188866152138,-0.05845222575575332,0.16807126580560872,0.05070753998312171,0.09462887777392219,0.08316197351102202,0.048408507686443183
71,0.3660096661082002,0.35663790957499286,0.3152751340873151,0.40335489196552166,0.09142101990922272,0.058696079825645266,0.12414379745766808,0.10529209940732236
72,-0.040421327432972054,-0.05617540745759936,0.024659597551737245,0.08457554279390622,0.11524073364615894,0.11334656780061837,0.07396395314185736,0.04622372078062713
73,-0.13491892349013118,-0.12852596639347735,-0.15296533557865094,0.022154434058266392,0.1248455369176652,0.11115016283471556,0.07718464928345635,0.0897133331476055
74,-0.12631414632325616,-0.11863638778192598,-0.14672453637847227,0.029921696987004587,0.08079940155956179,0.11998484586505716,0.11752521649321741,0.10229666948946871
75,0.09263050207970763,0.11310173067609341,-0.01731355650068772,0.20652954966473547,0.08068215763570503,0.09767111794386446,0.07495893917976773,0.045591137726766665
76,-0.07879026297629976,-0.07391187451229458,-0.04298322841864993,0.064866006330356,0.09995741434504862,0.0941853022421998,0.06717046803575463,0.10797377324965199
77,1.0368876278649695,1.010727545019933,0.3328087726488913,0.95255815011571,0.07019998894287473,0.09010872386220217,0.032739062454453086,0.11003775708419487
78,-0.12519905075821647,-0.09525658256564962,-0.15391598882398635,0.05900158293729474,0.12330785405220678,0.054338437531081016,0.020130883259857242,0.052267668447916735
79,0.1944996763813195,0.21942268017932554,0.11149328427054273,0.3071604606701738,0.08446958764682595,0.11664686106436313,0.08629907258437963,0.12460993521151953
80,0.20139018860776803,0.20547781957983535,0.23415978384990033,0.2894965410139547,0.08078789154996963,0.10765148300135072,0.09844382462906456,0.06466754501630567
81,-0.12698750017129667,-0.10348019932092722,-0.13056246231103535,0.04895036525825902,0.058587861353284136,0.0963424927106213,0.04112637755719873,0.01984982661709145
82,-0.12631304528902493,-0.10030485722145205,-0.14303997384294337,0.05086305857344264,0.07160898589812488,0.10017673586077715,0.10170759157714018,0.060925607109497806
83,-0.09022451573300488,-0.06238999785043242,-0.11389668618070864,0.0820889697457422,0.12361375295557475,0.10033783304567824,0.07677976674247397,0.08320538280717665
84,0.21003266395799491,0.2078862815323984,0.19283820977884547,0.29095124594239674,0.05430910742610179,0.11358762358848583,0.09632069694776774,0.08135927532643046
85,-0.12766520848863788,-0.12760414901572248,-0.1008579774187423,0.02937755032959355,0.07305093870484189,0.053648396480777495,0.1146896780369309,0.024341552344790452
86,-0.24955310829347388,-0.33482929644461146,-0.004562508782749719,-0.13248574758764253,0.0871453251562288,0.07190123076102513,0.10543506163422368,0.09339639518406151
87,0.005046395843649798,0.054722851973196096,-0.027283324250903684,0.1710631933592941,0.04247543673323463,0.08567652197433939,0.0903167099399979,0.09756786547806812
88,0.4093540909467417,0.4326227872444973,0.36925039135250914,0.4675849587091361,0.07389080585580349,0.03224955362151559,0.0882498978646933,0.08286389126262396
89,0.12742239543063794,0.08356064918600775,0.13746321149699448,0.1956020192909801,0.024362200332448496,0.05023571446638753,0.08911764184765834,0.07752840773361
90,-0.050881575794335,-0.028856345001154804,-0.06497860528241306,0.10542203023836627,0.05993982268914559,0.07100125075585773,0.04937923144691921,0.12087880823149681
91,-0.031419134227519185,-0.008068016288468427,-0.04749752049058786,0.12124858743409339,0.1148100513231144,0.12575292945852184,0.08318454261187226,0.13228343801233639
92,0.06201556033066247,0.16657342494215455,0.02908087814696836,0.2524010327925271,0.06472360307646974,0.054945401714919136,0.06992051387061532,0.14013503446161346
93,0.18270757845548502,0.09304411759812775,0.18888213921130526,0.2047884044398648,0.09397339201005966,0.09892084458754088,0.06371692339592218,0.12178051858459343
94,-0.17433425756512644,0.6771327421362058,-0.1904151890255331,0.5748431785398175,0.09578579399126042,0.10174077520462255,0.06577145088899804,0.05458054526015653
95,-0.12711398728507878,0.01734940365775156,-0.18042384727772656,0.1367871885451778,0.08655140990250725,0.09352225423821031,0.08174138839335708,0.05968183753865887
96,0.15456436899337767,0.2846378400875119,0.12874395399893457,0.33650356624977673,0.09193610658078566,0.05441828462275301,0.04890049500836734,0.09740458481530881
97,0.46350085651826833,0.37904638410875613,0.44335184698697805,0.44155274573303005,0.0730278208060279,0.07711809975226953,0.05294265538604405,0.1042091264004411
98,0.05271770087709271,0.015026750699121905,0.03853332699578482,0.1430199732992271,0.13101807074179606,0.06116624785585528,0.12459537291867703,0.06370475783271909
99,-0.024856552943865406,-0.00535053676286279,-0.0395002142178591,0.12035715214634857,0.028545730951717568,0.06618690501444861,0.018489039409311618,0.0773050716099553
100,-0.014591962128639446,0.010853566508243151,-0.029406220080311685,0.13049420301042436,0.08538736658670805,0.11164798065039863,0.11043112301556104,0.11454066033408043
101,0.20719898984791496,0.2987589702049769,0.1969816110972189,0.35484053998061516,0.11863766400262858,0.05744357285697144,0.05780005540961847,0.06687035875740838
102,0.026805678250718112,-0.013946716982180418,0.0021319787131682255,0.12839422017051094,0.08799066157056483,0.09167519976629206,0.12337586926839632,0.12398817251145114
103,1.0776752098775524,0.018852279076376932,1.1385725023936994,0.561825668433718,0.1269101950788068,0.08230568788374276,0.09792817790771088,0.09666897881776725
104,-0.010601145278561541,0.03193365459725789,-0.013435615538049506,0.13378279453001685,0.04097869457055301,0.10840803591203192,0.04677929595313838,0.10064187022369521
105,0.29120987618944194,0.4031539770569931,0.3109394298391417,0.41246037521259926,0.1242353801224116,0.07670653238045277,0.04744227474552632,0.08426079649490205
106,0.2676156266911557,0.11175647717630188,0.1995222999217665,0.2787404165051448,0.04637871910262883,0.03613131178465479,0.021014190429892547,0.09313814077193987
107,-0.0651552481331295,-0.07509341495500549,-0.08145249199056193,0.06796397992358899,0.08856555308289547,0.10304947604100831,0.10938367820723781,0.03181520751902837
108,-0.08164578066656414,-0.07348327519599585,-0.0885629708659329,0.06262690301499763,0.03536003608341823,0.06208519276315082,0.04876610915632157,0.05334457607232168
109,-0.06086115417851384,0.023457926131147833,-0.04120457003946554,0.08948964465892151,0.1276727996426332,0.10416148443332808,0.04794868382661893,0.1185136599188213
110,0.19171720300440986,0.04987491108677877,0.09583168067065317,0.26281655386357405,0.07430978709081706,0.12387758661677235,0.1112935594527378,0.09642441233436659
111,-0.1693551771191195,-0.03965916178625062,-0.2639177928413664,-0.02576958215497771,0.0672369113517866,0.06761749692422336,0.050731766722717835,0.06183074877076586
112,-0.3994909983791508,-0.11450970769161006,-0.19437181984798368,-0.1833981362257409,0.07311801488723872,0.15254657190657,0.0462831391879587,0.13857967963874684
113,-0.020432909117139686,0.120344132850279,0.05604668999378215,0.10885496433505615,0.10736374581656295,0.06501751911049825,0.0698645449126959,0.07331478759397246
114,0.34784607994977923,0.28276028334902714,0.29771034613445013,0.3954554926969267,0.09288596303278387,0.10541449645599936,0.05562525949579645,0.10780590495749055
115,-0.027328135070910364,-0.10064789502879745,-0.10699225153088215,0.11512712649749857,0.011271455961543116,0.05579889806042074,0.06893320955470493,0.06679020291102698
116,-0.1462701416960946,-0.12845788136512476,-0.15180779730143704,0.012885487218468161,0.12408140364476572,0.03108017396299124,0.022372984031054588,0.13190326741690758
117,-0.13323471149120897,-0.10929571824326323,-0.13600450298101796,0.023787886538883085,0.09107486396787931,0.07924696225394916,0.05051353695718587,0.11494596168532417
118,0.05197562301839265,0.18223253276948592,0.1526254974090704,0.13769761431818095,0.10353646504396997,0.1285624936947572,0.10092484574565154,0.10089016880741855
119,-0.05030138592264172,-0.12349556741708384,-0.12589284523144956,0.11660522247128102,0.11724382476767232,0.10585561198377201,0.02667226400392691,0.11172018228717581
120,0.7334632693863726,-0.17295962608632093,0.16944363383351013,0.27115638258303765,0.08771113365714987,0.05604371913070037,0.06002071571325526,0.09168558112950159
121,-0.10769001125704314,-0.03836300057540709,-0.07048058883548464,0.04497004683377931,0.05400924939191397,0.034400871577152714,0.09086717303598575,0.12890698660943156
122,0.18837008428771018,0.3510682978314371,0.3165284894172846,0.2450176038870624,0.09850867922853428,0.06948227961977207,0.025039952170942778,0.09690127205607842
123,0.25629542250063964,0.05162052375979875,0.11052978022189974,0.3559093811397315,0.03888106927478871,0.0519516953717624,0.03494688485273709,0.0327291477774275
124,-0.08876575318261926,-0.09355764912868098,-0.11177195456403355,0.07325163148529934,0.08294853233993507,0.09987403735080128,0.02945008603726762,0.0623719271103537
125,-0.09158879506128526,-0.0718132931047441,-0.09562637546387753,0.06447900828480851,0.07110109330491737,0.06753412820533229,0.06444426724380016,0.0943431003956423
126,-0.05724475694422504,0.07681066061638603,-0.024963731773266384,0.08832845746889623,0.052376690743188715,0.12163161970803733,0.09553450948146626,0.06573662066118835
127,0.2487336660708831,0.056363505119565394,0.16228425846695915,0.32443229018532205,0.07628399071279504,0.03290314963101115,0.10721171459425814,0.09559695122801973
128,-0.060576442276161546,0.4364498023851868,-0.21757576007623466,0.09334844075524046,0.09826008208137886,0.10675088377414309,0.08693048750995326,0.068624812800584
129,-0.16460558177399523,-0.026348378118620286,-0.2686998525807751,0.07806780394629814,0.11885352548590676,0.10107501233559829,0.09562431175843308,0.03275111550938119
130,0.04643144959692519,0.24006869753712512,0.0872604572236742,0.16961362144876024,0.10776072224026377,0.08518868697632258,0.11363797484681469,0.09534665210356724
131,0.4437727947546647,0.36085656196090954,0.45023143841432234,0.473226625817494,0.12224259567969213,0.0781319764631571,0.07276722994561137,0.03377465950216201
132,0.13690241535481007,0.0037556901557861955,0.07166518326184163,0.24143425819543796,0.03500520001191508,0.05657506203740123,0.0925213768028733,0.04901397436114879
133,-0.018007586928179276,-0.009049429050871305,-0.036896322577324114,0.12268362125789023,0.09442271569110201,0.0840473551880854,0.10854239503749073,0.07878886312782324
134,-0.0018176876504868433,0.016556019153315893,-0.01952541528164492,0.13475237211311886,0.05311644540078789,0.09136130628928654,0.09758843561791626,0.08037600396521821
135,0.13042461121946314,0.3127415598490063,0.13202976360552643,0.2424215651988988,0.06027140352983071,0.0968208369280471,0.0782933822942202,0.08805448246347942
136,0.12703456126170254,0.00806671986088281,0.10484376862083367,0.22322541349394287,0.06101112736023542,0.09691063209180611,0.13629978445107122,0.0344515029008869
137,0.24482898947493537,-0.0003684317179453722,0.17032857207722152,0.46319528519322595,0.08667070902553874,0.058755633703927126,0.06790066020478439,0.04276597164692089
138,0.012864753727478584,0.07678713468735227,-0.02730766523355299,0.14159362107869744,0.0900375081373111,0.09599595362231383,0.02347908328728309,0.06826570554505001
139,0.2653761928480374,0.45688831014946674,0.21044845598004425,0.33830979614480516,0.10520079654610139,0.03291627325574159,0.13107510757358196,0.07201616330871961
140,0.3876618770126393,0.16818982178723718,0.39121809303920263,0.4265171107125446,0.12263361270863994,0.0699377602606105,0.08326610660045246,0.027118613024708603
141,0.004403551777934889,-0.017021214840200083,-0.010095277700237493,0.13364269940962736,0.056028699996939095,0.0684093440603819,0.10064223738818286,0.10020895341033656
142,-0.021795418395516075,-0.014537345871160678,-0.05049617436482334,0.11136047431109486,0.03580118718949992,0.054616317892316815,0.09625051261013097,0.10377186168570983
143,-0.009033294740876607,0.08009180194625326,-0.042262129870007215,0.12081853420051569,0.08558171951851852,0.043364944937241905,0.06256118949984797,0.07592361470996446
144,0.2683011927788346,0.12193451097338515,0.23809306019274357,0.340746907022459,0.1021380445896749,0.05472670680777624,0.09488121828522623,0.10360611447862021
145,-0.06981224187881008,-0.050093480341556695,-0.05107548980733534,0.09556121271937251,0.11326501978076448,0.06479686395730798,0.024711498425541913,0.035849976916460954
146,-0.2946153879697484,-0.0764743640938102,0.5582308306761664,0.07384815505556647,0.08651469536775351,0.04673338916956728,0.06881510927639359,0.12089007204149915
147,0.019900241947378328,0.14882964178064595,-0.032583199850343914,0.13426846045610585,0.09805011521211231,0.13421039308082355,0.08355967997338683,0.02737733837359348
148,0.3874473637032534,0.356880846810243,0.3302806310441675,0.42368021190714367,0.11983270875047525,0.0976919049170511,0.020225891215063234,0.06403035239551928
149,0.017047581942454648,-0.050407122841160446,0.09670171586754889,0.1904800419707562,0.05080802085922177,0.09640631604967617,0.07352854613821495,0.08338185493854824
150,-0.11259469960154606,-0.10147342815366961,-0.1230323379167711,0.04747672849819995,0.09025127918685491,0.05436191650280979,0.08607053098044043,0.10722846384822186
151,-0.10851957937057466,-0.09344459804014732,-0.1236236455495518,0.04885716487326591,0.0454413568637271,0.1294093802713501,0.0594954500466857,0.13075265751300144
152,0.07757616405007561,0.18007454880574125,-0.038936236231499666,0.12825746604831023,0.06706604689851603,0.05096306924334776,0.09381905870690255,0.031066149909483413
153,-0.05907909761993724,-0.09082486254338568,0.020714140564794092,0.1507962187069588,0.09226166999415229,0.113362294017019,0.0538958443419262,0.09860466186897843
154,0.9560565751966236,0.6533577074030027,-0.13888144572702665,0.07910304127957207,0.044127847998217264,0.10668907530923388,0.0684156317811209,0.07828776223731905
155,-0.12820044662169466,-0.08148111251269385,-0.1690992493710692,0.011831819700866608,0.11091183506057965,0.10308987064110858,0.07548566476324124,0.09994817342327145
156,0.18309315494910094,0.28006657083811104,0.0667547424018875,0.19590366825404582,0.08765603074699083,0.09308007613072843,0.07758989089490026,0.10256002197653197
157,0.18190718939756922,0.12325753925514238,0.27455179416046915,0.33948269633073047,0.04831266318695287,0.06009819846617851,0.0391352807243118,0.11127471543258531
158,-0.14383855836221987,-0.12928213367027147,-0.12053980978242879,0.04022869134913065,0.04899212632287515,0.09933035368431728,0.07847294699493493,0.10447361743841188
159,-0.1451026926588571,-0.12105082890239788,-0.15226395520317662,0.021059375147315762,0.08478967726786873,0.10557973486691721,0.12967632329044118,0.02705495840634161
160,-0.10784522094729543,-0.06907489380099546,-0.13115505587707915,0.039026042553442386,0.09247433404050884,0.05719340874667689,0.10520041472734523,0.08064844584795768
161,0.16656165017703883,0.1442942361374494,0.16592591640633514,0.2728760705832345,0.07739104695572517,0.07823799268210402,0.08745314080017244,0.0492841561307701
162,-0.17359648363888716,-0.23093290094532062,-0.10748676814589436,0.050640573259143284,0.10040847909310212,0.0975152709033306,0.05343570502096391,0.11605983719592217
163,-0.39025293068755856,-0.339243497190659,0.34968695633113744,0.18131678477871305,0.08550661397441255,0.07180350924462489,0.10944308215747565,0.06185721909800946
164,0.003173562626656523,0.039101649869142774,-0.06813871885252815,0.1042948807542744,0.11527290248751318,0.10587069765426173,0.0354754673177203,0.013572907589198052
165,0.3982726499946726,0.40835390254461235,0.31705467181775426,0.410220994595205,0.06769394474713002,0.11936051445938763,0.04660731589707919,0.09535122184467786
166,0.061028681980239696,0.0431257631097024,0.1464094977553455,0.20419733920496974,0.09216132262743267,0.045561951617750576,0.08412920729281338,0.05310610086781279
167,-0.07444395758631162,-0.06285993683376506,-0.0926199677711681,0.07468615993502997,0.04905140154175058,0.04442384949557898,0.037532446986723395,0.0721019580940732
168,-0.051848334169051546,-0.039798153246970225,-0.07693638773783873,0.09124829978360421,0.06492958520275775,0.0903228521033711,0.07673841045873858,0.12124105895844003
169,0.08386598592893646,0.12063223741505869,-0.01618195363736863,0.18920189025812884,0.07199082395447298,0.07783899970433052,0.11370800066964673,0.05297156163057498
170,0.10906904823192376,0.09411395584900795,0.20736429404818169,0.2081069239883636,0.05204535359403881,0.10980588952306738,0.06984541905285532,0.10502074401008941
171,0.028313248743648378,0.24201356456634715,-0.16118597908571783,0.3268473926772514,0.031384777715643894,0.06838576409251765,0.06342245950184805,0.11873957291938662
172,-0.04147290594130215,-0.014334418933890258,-0.3132761782192155,0.14888615578430142,0.05577553636036388,0.12041120224170686,0.0844729485166646,0.037851606356820985
173,0.20297818200002615,0.23147349813893603,0.07981364467153701,0.34306880969562425,0.11231688438720386,0.6332374566379805,0.28858866811970396,-0.7202382123384149
174,0.4420941082828692,0.4295482883829437,0.45026725712198556,0.47040565029288095,0.16247028551748538,-0.06068585972055168,0.1994443272816372,1.008468604228932
175,0.03644159095089,0.03492454771568415,0.0824362290247912,0.16953764309889918,1.0778001488734843,0.36148914050825515,0.5212864766377224,-0.12426134447211806
176,-0.011590359985606646,-0.001006381081133545,-0.036468233686760054,0.14581402047959202,-0.9537387025120613,-0.2793521224154998,0.3446927410004257,0.4304025625741196
177,0.004348565912715596,0.015219680957443915,-0.02346629624167318,0.15804830379482182,0.336851852731654,0.4001915933504428,0.5512928183756752,-0.2860289221766526
178,0.2665458775745657,0.29138075807110664,0.1297088349557115,0.3824916788805849,0.4088575818021159,0.3146465366554983,-0.15746256083968224,0.09221254953816
179,0.036234642110639925,0.031124526261476326,0.08193150987864145,0.15430157708807746,0.9786702489547735,-0.18707104530002983,-0.6721576936795284,0.09419120067255494
180,1.2000000000000002,1.017104223116562,0.3106699347877957,0.4072525854232415,-0.4042056408854449,0.6422527142519092,0.4998817858015565,-0.6945870786599013
181,0.022468217884592967,0.047690635798941616,-0.032864952511620305,0.16797237219587136,-0.7578270224994925,0.025584747792023355,-0.5537953473742715,0.021811903194246175
182,0.3544939792993389,0.3932997531934005,0.21626699647521364,0.4544081940275455,-0.35609915732232655,-0.5196365747395449,0.9107816053647647,-0.754174132357429
183,0.27562809320245807,0.2435693635573314,0.3305045016448681,0.2860454134410323,0.07196892758721464,0.08701028427907691,0.04955477688842992,0.11317880234596515
184,-0.0380897009499474,-0.026069215333208273,-0.05191603730784067,0.09747140427342965,0.12185511355925527,0.05017510579930434,0.09649933768208199,0.08528515675688994
185,-0.05102089856976216,-0.03298926368663374,-0.08011977751158034,0.0942539382185415,0.10210147299882684,0.10440664483416569,0.10326707691536821,0.04476523959337971
186,-0.02798058062062042,0.010087839620008754,-0.06939147965406262,0.13204194391778856,0.08374768466989467,0.09249449605312879,0.09230498702756224,0.12810236009333262
187,0.22225640951583792,0.1780399244060311,0.21005523003390836,0.2611171279703667,0.08160075562847419,0.07363037062731961,0.061111505188619276,0.0720778847082487
188,-0.13861151335276084,-0.22245653978858734,-0.11684148704755892,-0.05170410362693434,0.07885859018453845,0.045529251931849216,0.029775459281164054,0.10389348484689492
189,-0.36617758366175257,-0.23700542414944456,-0.28208911143738863,-0.1011712279052926,0.0771996422709079,0.04856399493474858,0.03842453523067877,0.1259990296895573
190,-0.005156973152313671,0.06203215377370913,-0.038475816894565085,0.15782099511946723,0.02695804913173362,0.04465343408157264,0.12663569973510805,0.09884557887439124
191,0.3708266031045434,0.35902615529363024,0.3303163096891547,0.41783731253230205,0.07922686719705987,0.12421875925752564,0.07737492168014501,0.0895326250210657
192,0.016189993878193254,-0.049557633650940736,-0.01902577670121497,0.10753697007195484,0.0841586650821058,0.10096983497456082,0.0543621290689921,0.11089702217795563
193,-0.13662696317279288,-0.12223696591731914,-0.1543450400666894,0.025786263233845474,0.06738166040146688,0.11335899769069048,0.10215287562345926,0.0654524588575027
194,-0.12980130055871691,-0.11282689698146692,-0.1468490412290656,0.032638152939557796,0.0707131741075374,0.09165467134861861,0.13085867292239392,0.09987262985628594
195,-0.004743605647116067,0.1362293468353457,0.03111552256939204,0.1715562253954731,0.04754256841153854,0.09487049338203038,0.12836201689610152,0.08024521535671798
196,0.0026262613349877784,-0.08718777682832696,-0.08215502509239475,0.0937855944617868,0.060963692430359595,0.04365747990616653,0.11020190727120133,0.06066853377851636
197,-0.036935880589909154,0.9680537656408051,0.8755623083441989,0.5629645785140321,0.10237292265126996,0.07216076450563168,0.04851448364643391,0.058044706781538266
198,-0.14990773663741408,-0.09170268104667895,-0.1445260709615705,0.042522405156462606,0.043192310840953374,0.043858196539948505,0.048530644366627636,0.04323621431767819
199,0.09065283942867369,0.2595011073954482,0.16405345545497763,0.2543860418827769,0.053678905989598416,0.06838230771811064,0.043094746636850416,0.07806415085888277
200,0.32107523189476606,0.15316497641047333,0.17289053886449324,0.331410214405109,0.13861653408065405,0.12748450996405655,0.08704704360278516,0.0979048010808696
201,-0.08062491194228966,-0.11350522020222459,-0.14514318256281633,0.05300659474765723,0.05933538820312234,0.07261526255282885,0.11656690835479432,0.044837095483734664
202,-0.11992441066281567,-0.1035166532573007,-0.14246123401114802,0.04423041628972291,0.0884746630102315,0.04884585995774016,0.08182124879644155,0.04094331408896424
203,-0.0964513635155439,-0.05032162278341629,-0.10334230015587448,0.066254993393566,0.10305319869264672,0.13398509524220248,0.08563214356472387,0.023891654473897357
204,0.18536814472962726,0.1733563309304107,0.1716893376512051,0.3037633502054684,0.0663105237533358,0.048984449319800255,0.09079560870848133,0.11017926666510423
205,-0.0458974403154922,-0.19826772261517853,-0.1643590447480711,0.07627602669860478,0.04708141258766962,0.07557074997805469,0.08195961471425295,0.02154512135655508
206,1.1151112415828877,-0.2965910430992,-0.37415879793033324,0.15918642754351497,0.12083946894587914,0.08981832759816226,0.06530868928984351,0.09133178657890229
207,-0.017460023386560275,0.06942327973177315,0.020917237968720748,0.1278637683574516,0.09485983504316832,0.0666483480414468,0.09303558491008923,0.04457714342907543
208,0.3377450031152748,0.4245256715886311,0.40955960982497175,0.4346118416125111,0.08213368489442713,0.07933194681826526,0.1306694570333604,0.1023389114340082
209,0.25842668030041827,0.04832091212941647,0.06937988231584263,0.24152445797686362,0.07567363174346903,0.07869983476872615,0.06314024491992515,0.06589806358697153
210,-0.025033995280874022,-0.03714220801482887,-0.06081931976198368,0.09745128483516063,0.10450732445289257,0.14376408296084223,0.04806190782924307,0.03445252682686488
211,-0.017091414898983137,-0.014727593090099078,-0.04025235529063226,0.11191955376418039,0.144864555377521,0.0979287219931079,0.05747842705070185,0.09401330295145856
212,0.02971586118218067,0.1949188763826144,0.10136599902193655,0.18659531452587097,0.08074388976978505,0.10667626756765906,0.0738674485050908,0.13888177313589406
213,0.2728721661962703,0.06324865549529718,0.10111523468991257,0.26159491470550267,0.041767158305966466,0.024949184174168325,0.08330011102817819,0.06150227402190311
214,-0.09249760037261295,1.0228566459796875,0.13725819891142887,0.0411863202532618,0.07826801783836118,0.09033515327843243,0.106949708304902,0.1031099695118651
215,-0.26870468654153523,0.03620592460949629,-0.03356605636896898,0.08336040167830006,0.061011732839491434,0.09559013681964934,0.03841885704747982,0.08610176319587808
216,0.12302316753932174,0.34372284634329897,0.2088444635618001,0.2774117381840221,0.0745663896706536,0.11815410508433684,0.08000515986225865,0.045251427316216356
217,0.47591598750832576,0.3268024915254675,0.40416938940616864,0.4868436603945976,0.1359872585498318,0.1368844975605057,0.1001963581472129,0.06318262348493438
218,0.08463919235056167,0.013365055369582712,0.0041673408094210496,0.16789864859447834,0.11072163419891262,0.06492015360244567,0.052456414879182206,0.07072914419933482
219,-0.012432667318584723,0.006130616340097095,-0.03435359694194701,0.12063972378248633,0.07786702959181532,0.03129703312022482,0.03439069586786106,0.020102105226219285
220,-0.0038449409674480295,0.03722023178619516,-0.022392571366274205,0.12835381042531457,0.04695253061157663,0.06350322185839044,0.05107237608929807,0.11297770349387941
221,0.2185972785997996,0.2631043858160499,0.2581588044295883,0.322265156256868,0.0544682784144423,0.14924804268799058,0.0388035599682822,0.061825253324425
222,0.026831415046600582,-0.11299025600325507,-0.020843847030630136,0.1430507807151702,0.04063666111435871,0.09958279277483163,0.10157074319538499,0.08349128839585616
223,1.157285855060286,-0.2551749094693133,0.6974669594973414,1.029272212197252,0.08122368971606139,0.05833513271196158,0.12086198370631514,0.09009132206886167
224,-0.011296867205280892,0.1029624890919868,-0.008062139187486217,0.12644274882024098,0.13638854203993733,0.06397459741669453,0.07364034901802682,0.056845351869889295
225,0.3226918384799239,0.4248236299304057,0.3519473121734751,0.3798670491540965,0.04251372810186909,0.11763547208612264,0.08304194469260487,0.12149999655079294
226,0.20498606567163558,0.021186121665956736,0.1441268772576757,0.3136392163889681,0.11685700085974221,0.05295221885051508,0.10507672121276143,0.11553118516576706
227,-0.07874759108516288,-0.06777996940011527,-0.09374881315735956,0.07613401425629251,0.08129240946241448,0.10187867456523686,0.08079077839911059,0.048556353732548754
228,-0.08547191615421978,-0.06459724055057892,-0.09714159763481461,0.06732317300267088,0.11274535519588214,0.10276941078060467,0.11019417405589095,0.05649748743689433
229,-0.036006840690451736,0.1711886113784672,-0.030986437707948844,0.08960577933535913,0.10519271106875137,0.07259775356733865,0.10908457960964116,0.09055171460790748
230,0.11197781313404565,-0.0534513152347465,0.06833196257250107,0.26696053263802,0.04251039613845956,0.11155331851651422,0.055291623521736846,0.12110663032929254
231,-0.265841380629382,0.9284689808258583,-0.24218512903103306,-0.0241779491464596,0.11267705204877554,0.044934250104177384,0.021515665420484848,0.08851588574090288
232,-0.2179592278831742,-0.09136963879188059,-0.1934141127152469,-0.17485133306845407,0.09766889044763186,0.11341072015128911,0.11095399838197526,0.06690225284830746
233,0.05106397838826232,0.2551618444821733,0.05079870910443085,0.12015748252528025,0.10511127535566428,0.02780246193305407,0.06828851883827682,0.04939125117993977
234,0.3262504508660339,0.1287694942413301,0.2920433103518949,0.3930067580234189,0.07363928614349156,0.10582856496378219,0.05656356260813705,0.08837805745716282
235,-0.08691959101232694,-0.14055606399263287,-0.11423563890365251,0.0945939050645282,0.11835749928870543,0.04934753583543197,0.09106474301210847,0.053086223475748734
236,-0.1419574651494509,-0.13752975804409745,-0.15966326540600123,0.016951786084384135,0.061662064750319476,0.09264030499390602,0.09937013710649711,0.06207885735104081
237,-0.12718452876197495,-0.09008038466969293,-0.1442369090296312,0.02716548496493626,0.09875488229228523,0.05090386512046552,0.07571950881176409,0.0844493206599214
238,0.14914364606768737,0.11756684580266896,0.14044676381618793,0.18961677853307957,0.05786065247471766,0.09787993144347457,0.049261567004972535,0.02675311954724704
239,-0.09929985157512172,-0.29046937379595633,-0.12362105271819623,0.07524910481153196,0.05474162088957474,0.12947817057699185,0.07308825223485756,0.06210790264847323
240,0.7405898763163589,-0.3142963432706367,0.4915588767772796,0.9043369958439526,0.021952656021451567,0.08765953654873218,0.0896673707053155,0.05850929755895411
241,-0.08049000089982844,0.03455305698425826,-0.09785336644456799,0.056866531614091664,0.11897242660309378,0.048411354161469675,0.11742709625087346,0.063434594389204
242,0.29642779345204673,0.39283654051091044,0.27980983343605437,0.30930219920220825,0.07958987454898654,0.08120894516382714,0.07405061897917241,0.090578555684309
243,0.1396626746243954,0.017481782349524966,0.11698941988297329,0.2886645365944669,0.11783914648911901,0.11874703103222024,0.07765141824110088,0.09044641804356228
244,-0.10016945806915728,-0.08508052497124874,-0.12412353950480448,0.05922607735640556,0.05418667663152566,0.030520691511102153,0.05658681659097633,0.023410006457526472
245,-0.08388567305291522,-0.06279347285165271,-0.10806990224343505,0.06598340861552404,0.024035257457962256,0.12235852486322242,0.061076424570555524,0.1264715976652529
246,-0.012534263073523177,0.10413974651542468,-0.044447190937141834,0.10271846903350013,0.07374755225041964,0.03129997691632762,0.09808548631924387,0.11699284449109497
247,0.164133144067097,0.06726090387756833,0.16313366368637994,0.29274838704830564,0.07083638241720208,0.08365200435684254,0.08521054169391915,0.07112245859467664
248,-0.21120272179768496,0.2531408787280083,-0.21099127366954828,-0.00040357546438180014,0.07596197096850278,0.04973473277998044,0.03438381955710294,0.11115384027082578
249,-0.1744147304940347,-0.02585451501346342,-0.28694258533338723,-0.08839175973986146,0.01590827330044606,0.09992711906520575,0.07660316080608169,0.10254569469470247
250,0.13450393615424572,0.22181927171665017,0.07922027230455131,0.20196045406526586,0.105739420395413,0.10504587987873579,0.10573860101012997,0.05553751069563894
251,0.4443762353616171,0.4106855725329829,0.4416888806436243,0.4795766859667112,0.04289814104986815,0.05887398090979596,0.1297829751878984,0.09419853714714449
252,0.04334848440135736,0.027240473583463598,0.06390901424804507,0.1849525948384414,0.11838225461257496,0.05705514333002286,0.08143378937790895,0.1341375275370868
253,-0.01619178035699692,-0.003187069697392686,-0.04014094222729209,0.1149294203528467,0.03773440117455222,0.03378900687144255,0.02870768202718711,0.10632357988048492
254,0.0037908841652506964,0.017376699865241596,-0.022384068256992296,0.12933435440120222,0.10954840815946981,0.10038021434045845,0.09446707527370482,0.1171401057996317
255,0.26427375188128144,0.3001290711019525,0.14724461660094423,0.2899039009144566,0.08973306939784982,0.10303268623547863,0.08358477911217266,0.021909247938269184
256,0.039392564236383154,0.046316896664313656,0.08248680644268752,0.18258084878714798,0.06651455011935856,0.032983894617481926,0.11647208540967405,0.0846695527645203
257,1.0927022234108592,0.9812003595237156,0.4342421058280941,0.9325097553865832,0.12141603039624578,0.10740576976526847,0.09062859437054764,0.08373521025180283
258,0.027952219700006775,0.06449652698665098,-0.009197978307654175,0.14124528821447802,0.029178871705665965,0.09144958915846832,0.083339138271284,0.09429056487208555
259,0.3773799504369836,0.4176106095239607,0.2399166875561758,0.3737082252216666,0.09809783077536112,0.028439170493614142,0.05811374319957372,0.11158849418139748
260,0.2600036995997419,0.2562302992524892,0.38059621176648917,0.3815129980253459,0.042457976580104535,0.09922648124026444,0.055188429384813636,0.056492465681798325
261,-0.025762038288137556,0.0006588132083659715,-0.013305312476194098,0.11814559635238409,0.06998175416385798,0.07481742292915827,0.048824014120896694,0.04929768619203466
262,-0.03027426927593363,-0.002882474916321043,-0.048267542207638736,0.10600467244480083,0.0713752049476628,0.08072270404134989,0.086747246567262,0.08875152487264591
263,0.009261455593568835,0.048834626655763436,-0.0392335573233879,0.12060793089326405,0.07865319691347347,0.06109193542276572,0.09745174427129533,0.047273621877725706
264,0.20650856048501198,0.19219585850861087,0.24615784948951303,0.3293221226208579,0.0842880361737133,0.06036988000000999,0.060165448417347056,0.1114487321308497
265,-0.19355039224027568,-0.1903669345397908,-0.052640081270589445,0.05014921642010495,0.07793114817333846,0.08049186265319755,0.03625582775594881,0.04596571647126173
266,-0.2803472832792313,-0.15435990092973115,0.4216807943258437,-0.10382787924301684,0.08920109871903266,0.0818773902506165,0.09914424865774442,0.06767267912237089
267,0.06234233378422782,0.11328813521422598,-0.03775351763169432,0.13553516799512477,0.10631481650118059,0.08634993967974122,0.06543239592625748,0.018926033391504685
268,0.40609883149734594,0.3877531036142483,0.3281681995724859,0.4222361260033083,0.06128146046601603,0.12161879096756129,0.07808235482368947,0.09677676524818561
269,0.0031655846434799906,-0.024655709532848957,0.10322267098108395,0.15052796203864982,0.03305352817929092,0.055465997550625874,0.037032714341229796,0.027469878395028725
270,-0.11368885400768908,-0.09497437168184591,-0.1277252205945233,0.03823565357513686,0.04475723945343042,0.11587351542050953,0.06529179164186216,0.0676090231718067
271,-0.10945526466610822,-0.0892156593731821,-0.1286975730276781,0.04151941017206362,0.0806944046364191,0.07501899566155217,0.062206416804712894,0.09854943185608168
272,0.054159380886547204,0.16126030000660163,-0.06056342896181216,0.15714323338019487,0.08518495191737414,0.09648347479953068,0.08133807587423232,0.06166103056073115
273,-0.02493399973035776,-0.07839045584633708,0.052201894563982,0.10572009612607414,0.10569120052218353,0.11930094387032648,0.1432230329150042,0.051248901223446185
274,0.3449628743729911,0.8858727698269572,-0.28874936619601305,0.5069187240575849,0.11151311876661593,0.1352945582277206,0.0468886696672737,0.09565444650302948
275,-0.13822126369235255,-0.10097605978976132,-0.23711092940301792,0.03924794176797092,0.12521206154356754,0.05914887683527863,0.13256281621842542,0.07656622095340793
276,0.10931879717501902,0.24604964844454658,0.02308415096822758,0.24706522313979107,0.04069202875779034,0.08559520264151421,0.05016308371368324,0.02100821495662588
277,0.28966048540663103,0.14890207600360994,0.29830904581699313,0.3108617434275023,0.09875693924646625,0.047460563337499026,0.0891781310280684,0.13234106947953012
278,-0.1107191422234014,-0.135304154836976,-0.10695637502924965,0.036227286217188515,0.10559189414363453,0.11581574028452925,0.05270533253818991,0.06598565976508898
279,-0.1449001367773221,-0.13104295420069118,-0.15981954080799185,0.027654518658079386,0.08931445785528479,0.0938673887267442,0.07199788568386767,0.08031548723816063
280,-0.12470425011880948,-0.09133104056827673,-0.13955002440317965,0.04892604558755409,0.05604499557382854,0.059012546701762224,0.06750378991809403,0.074600101456466
281,0.15901207176743637,0.17344842072579414,0.13247624821186355,0.2777508261808196,0.09100905787344259,0.04462026672803189,0.09123030219333743,0.14046943680160234
282,-0.07985371850751155,-0.17256327971862787,-0.09848245566874453,0.03410080861168707,0.10785568901071127,0.04561266268198488,0.08166265679508998,0.06062567518539217
283,1.104985743428343,-0.36570253229441463,0.9223316122475734,-0.07873437287406759,0.09384702512118703,0.037168419916115414,0.09178234781462016,0.1002118448275092
284,-0.054439927316741854,0.008163173452629235,-0.08357327645733476,0.13308615221908449,0.13571713133552785,0.12304137053077108,0.0872896617670729,0.0784779439639449
285,0.29284550234044404,0.3994249918425884,0.27974349495538287,0.43959465870786973,0.03328920765095042,0.07560251270400814,0.07114791937808419,0.0680818528637856
286,0.24021042780315482,0.07850899701114972,0.16765039208153465,0.20907646532287694,0.015978232832421172,0.03999202512517319,0.08055962508297447,0.04751189429538405
287,-0.05591574869724042,-0.06370492216128476,-0.0901947172223116,0.08506384117359,0.01710608511685041,0.053802919217827164,0.053426477899995724,0.11390340071499372
288,-0.048490503430975385,-0.041904233372025645,-0.0763036542949248,0.10074511455345003,0.09403572497807083,0.06087383268078263,0.08947187970108415,0.11614623872495165
289,-0.006126030422006767,0.07985435437648464,-0.017874563185230286,0.1886959698301799,0.05953259144490831,0.04664047544667878,0.11276988109568602,0.04764417818319265
290,0.27121492320719587,0.13125866933487984,0.1958923717268588,0.23973714534221813,0.06992246421436138,0.01643504246497939,0.043648810014717564,0.07111989393473478
291,-0.07071331005630727,-0.05777765589591333,-0.11754347820291305,0.0767607949772191,0.07149814416107068,0.03758879261348092,0.10829729190953039,0.11829432008764139
292,-0.2726026973800362,-0.03840549761863926,-0.2069779413210338,0.09129419352275447,0.06206844234703078,0.07684928538587028,0.10215095999160709,0.08809220380176964
293,0.08943550169923825,0.20689133628174483,0.14553820419582875,0.2814878586960793,0.09420649887653672,0.07462665597154754,0.09956458463468393,0.13227621527323413
294,0.4716792518051929,0.42673707487264134,0.4824413971532844,0.49425835626703907,0.06655148026564407,0.05430979726924461,0.03018845933637557,0.06587279726813298
295,0.11712458131769721,0.03504890110649239,0.08665833943044676,0.17680024820417017,0.10846723415409172,0.0855059855401914,0.07207853171801039,0.10928248715835348
296,-0.0079033890563871,0.00043533463668504746,-0.00022620530276590278,0.12940202966889947,0.08735028598452965,0.03834494389027553,0.11175428078913781,0.04272431505149342
297,0.004525731090331053,0.017396774836088313,0.010829632012109291,0.14000712466642018,0.10548595245258544,0.09049846742231524,0.07749739991845019,0.044617396595555824
298,0.17803364195328508,0.30238750026790295,0.23089925416732482,0.32373333689102557,0.03338156926048856,0.06902641294469829,0.11564171375353653,0.0410272218822161
299,0.08063546576289893,0.020867427754252932,0.04958157226134535,0.17279177320786432,0.10869608270613967,0.011039983346671223,0.05670071585700977,0.11060767369325646
300,0.8245014674782353,0.4308449308663339,1.1716496453671343,1.0273626526878479,0.07930232167153506,0.0891823447184575,0.05778350562054094,0.0418402105405006
301,0.0009211688300188592,0.05278905582013976,0.009359937668751372,0.15016966972493584,0.04361185985433459,0.06294119737514664,0.04662575948664251,0.10002954986339821
302,0.28323115833571577,0.42189455738390924,0.324931615213635,0.38292721847857525,0.054652569312349575,0.12023606297735025,0.06683983744429278,0.08009107697108815
303,0.3225964426970377,0.15616752416313995,0.26431357294616875,0.3739829015262074,0.05665456867095156,0.1065327866259049,0.06669004417045837,0.06142272107088044
304,-0.03754738309663719,-0.037344964129338076,-0.049075256651027466,0.11137534170938146,0.060289092301249236,0.1291203989861675,0.13805468014394884,0.11777395827338635
305,-0.05765511843737975,-0.037610436920196944,-0.06203629769082547,0.09710131388705578,0.037891231570691936,0.11668909190339352,0.09139889833717775,0.0635937089702723
306,-0.04127524816789979,0.07221281071016739,-0.0341980257280437,0.10968050173162014,0.03393829361361672,0.12787823680241334,0.08731939831200865,0.07937168864754744
307,0.2261325787613342,0.059067724369708474,0.1821570170259822,0.31555393074792193,0.07824133735280088,0.09447297348556935,0.06402136284517213,0.05116530615117429
308,-0.12081505190811404,0.29577559621310234,-0.20279276558660814,0.03494364997414984,0.06112483927333462,0.06767024366726959,0.10582614614438568,0.0763272921466818
309,-0.3558996321250601,-0.09300492199519106,-0.34758657338468313,-0.11658662466496994,0.09970552235732083,0.12799358403543842,0.07537122402033694,0.09626807755242511
310,-0.005434805770137885,0.1548621176863183,0.013829672519446501,0.12008908193416612,0.1444423110790503,0.039001016529834266,0.10183366405409736,0.04183896859370734
311,0.3692364168694784,0.27173391911256606,0.35006646822218146,0.4067291732224003,0.05749440551035619,0.03843668016056992,0.05631407790793809,0.09473900823909051
312,0.01547802156275907,-0.10623634679453953,-0.04887828050368542,0.13398860073060026,0.10860122408143144,0.04584465522047225,0.10186282150403089,0.04548753635885844
313,-0.1347474244387823,-0.13258964110466515,-0.14815630763082577,0.02627941175607429,0.10077876367684929,0.0806929846461829,0.12749128422047937,0.07404023042627705
314,-0.127605608049436,-0.11674733399699022,-0.13980805426874893,0.032311709835805835,0.03693857110820586,0.10306145863699287,0.10318347970732039,0.05939309837084546
315,0.00807616072656464,0.17498365989817632,0.0715344161761799,0.15941766138775149,0.08940096218722177,0.08757968902107556,0.10635312862861093,0.09106973718784626
316,-0.013141614331170615,-0.1282517284358996,-0.09224092083632685,0.09491863792570765,0.11659169430067888,0.12134286551196942,0.045746563486779225,0.08776650607649819
317,0.14927684762453475,-0.11891930722122762,1.0099684812902074,0.6075600252871342,0.08955046760102713,0.07088994188277459,0.04182714687859033,0.09511250643239649
318,-0.12792761649302242,-0.06134444461148586,-0.12200776930386081,0.0323584336092258,0.12222225099976647,0.08866286058951663,0.0615831058396209,0.05087895553186436
319,0.12501978652705092,0.3272481591983558,0.19972658303098234,0.25141049044944475,0.08952468653619468,0.06354580720097726,0.10180136353404687,0.03704502705318189
320,0.2834793631781324,0.08116512857166425,0.16932053679618453,0.31159792236300343,0.12708715525083153,0.05544178938212549,0.07809326155870534,0.06161357762545929
321,-0.0961664943486657,-0.12027428900619946,-0.13291549673471215,0.04227137899706429,0.09026103073087224,0.042529316055229784,0.07155860550090759,0.056023602634237654
322,-0.1150474512392301,-0.1035757625433189,-0.1280745367831128,0.03797786581429152,0.06942969999305466,0.12689578146480118,0.07767564912728911,0.11290252068144428
323,-0.08783537590286661,-0.027892192234786894,-0.08643028232105526,0.06293261074491369,0.06577678186046142,0.05261403158660663,0.11393915738741166,0.09406170650005445
324,0.22030596432379856,0.13780381289510413,0.17042202846703414,0.29549902059680366,0.07168669554871063,0.081311406547888,0.08135020544166889,0.11752100408748367
325,-0.07117660159382239,-0.2340330834180979,-0.18382365470021342,0.08019047202293222,0.06473447760390767,0.08460423844318854,0.0729524051820785,0.09428186890391166
326,0.16486900634856505,-0.24850506393600094,-0.35737003148943736,-0.03239421315823282,0.11649207361014144,0.12611014320963065,0.09430696149107848,0.08209269742921306
327,0.023294178443674762,0.08707109844727423,0.04030201082158036,0.14627398342815023,0.10100178166721202,0.07008585829151495,0.10871094887607037,0.1067368596985383
328,0.418724436196801,0.4284261824979728,0.4082618405070464,0.4557209899193515,0.11759683476128666,0.08117851810696408,0.14256703238772156,0.049478635308565035
329,0.1436909770535585,0.04402677220192486,0.038622962702747676,0.2376507683225707,0.10619539089467198,0.10185004417474114,0.058956021210543795,0.13223872747104298
330,-0.02246289932797052,-0.03331949716339638,-0.05685794604018052,0.10187546995436492,0.11751021642810808,0.04898298927578521,0.1078653980990259,0.06321282968921593
331,-0.004368423175038549,-0.01112319160965558,-0.03544405965611708,0.1159579053968316,0.11560419474283999,0.06672800476941178,0.054557037580564696,0.1541634511428156
332,0.13398233311168328,0.20060263185852267,0.1674630699182038,0.19002209995822528,0.10192624336363884,0.10422948013708357,0.061628888286826444,0.052001950038609815
333,0.11894789220281632,0.0680594842410886,0.044479041936870134,0.2730682453079897,0.11122292648859047,0.06543714559862737,0.08065384489824012,0.053710746490082804
334,0.46848355418755316,0.9706853807146626,0.9808433648669949,0.017336855875659307,0.1098054448920914,0.10061151054853558,0.043170670503421035,0.13765879776522608
335,0.02884782505194483,0.04838520988635836,-0.003720672593236052,0.062067986518073937,0.08746678420743095,0.13410483741393037,0.04559606334492954,0.09385321436874786
336,0.2983292404501414,0.3489399377504775,0.29266714519353665,0.26776988479130226,0.07198627550896759,0.08424269348889431,0.0728811039104304,0.10029011649882257
337,0.38478621436533755,0.3440093817670421,0.3306815816993447,0.4929153467145855,0.0903242383712275,0.11194967043080467,0.06282718463860029,0.07576528983375229
338,0.020771868946597716,0.023255083832053103,-0.017802080347149418,0.17514879319637755,0.0982321879943929,0.06387171865500925,0.04569124187617033,0.05247234111132308
339,0.003708544653654,0.015200249726992132,-0.031485685948527464,0.12071384073897151,0.06703031373004541,0.07371124453804642,0.03885296121993362,0.05844877466322437
340,0.023689792717395797,0.046519080386468126,-0.011835854945629998,0.12808023789852896,0.11939780042349817,0.12268707321885196,0.12404469131843246,0.05359627515050162
341,0.2907211443506036,0.26524649257497124,0.2691597337774436,0.3069042910604153,0.09443104055316374,0.07344960401533351,0.0961161480931768,0.0889852637120933
342,-0.07404652050591398,-0.11699396484001001,-0.059238968986876694,0.1520783795767503,0.09293685648152429,0.10813536682756969,0.09846302126511496,0.11390709352461431
343,-0.29663382962323204,-0.22966421591185748,-0.21804294939535177,1.0354840455969399,0.016692890549027124,0.10104075703843056,0.053030015869218815,0.1012550369794187
344,0.07055120865164444,0.1128462782104207,0.017526408899462664,0.14541424039314732,0.0886822286053232,0.10472342785732183,0.046104824893608926,0.03556242800149031
345,0.43952808143298205,0.4266747258773026,0.39518128336942315,0.3884938447153806,0.0638826237726111,0.08915095392864268,0.058598180311612874,0.0634425481903085
346,0.06943311385068468,0.019579551777325954,0.09327086975639343,0.32098905964180324,0.04654542251723111,0.07760075236776422,0.09009181361688781,0.0495445775817838
347,-0.0759734296496824,-0.06351629928065777,-0.10232974298384451,0.09100196366087848,0.06775325289479628,0.06540882357929974,0.09242592269426846,0.06538668462016005
348,-0.07496137580947376,-0.06092426817810942,-0.10303230044857692,0.08276946248534728,0.05449858871404249,0.024110022991171657,0.10233298488107641,0.08179160416702308
349,0.059315112887224075,0.18191136897516125,-0.026412748891687543,0.11234217637559507,0.060434471952024636,0.052212350936416706,0.08186351291212039,0.12260799584993122
350,0.018705858324340574,-0.053980688506479524,0.06839663704636667,0.24459242770744138,0.07279733248130714,0.10747166104961024,0.12029295439534161,0.11548765571466267
351,0.21354326653177436,0.8496553809360415,-0.30158798536389353,-0.07068078600267713,0.06784111511416772,0.047957029997612206,0.07257934989446303,0.05935280068643063
352,-0.12885610189982882,-0.08393981432816494,-0.2438520414105261,-0.0434018844982299,0.08867860560776238,0.06844514408920382,0.04246324972930282,0.07198873204126736
353,0.10654378990223567,0.26532665586998405,0.023310659504696185,0.1736452505408267,0.07383433160386674,0.0677788816427112,0.10681079910872307,0.06675820646230539
354,0.3035799097016316,0.13007153761247126,0.32971477818884687,0.3808906760146984,0.0689026452680612,0.08145210817658549,0.09234760077865421,0.09665131852005981
355,-0.1060790197052181,-0.13730485071213444,-0.08037616731606895,0.06690505151570719,0.11158926776543364,0.03188462100624917,-0.37820271753339085,-0.19578147305563365
356,-0.14838084290454495,-0.13415567712676457,-0.16287185856310282,0.027382006088840782,-0.6205831141573134,-0.38851805419844443,-0.7023061273803609,0.7114556420665972
357,-0.1328594878914438,-0.08944254447247985,-0.1501583544182164,0.039324393315112505,-0.2718894571792127,0.5705541356934244,-0.733602445190766,0.9778542827884389
358,0.1421963345235916,0.12551828192625025,0.05723539969594216,0.2603020666593254,0.18904903492864764,0.7217832853347412,-0.45838346155289805,0.27308584556497967
359,-0.09613503270103257,-0.2511035963858067,-0.07476326558771212,0.050053737715214985,-0.3426629170147772,-0.05735662305436747,-0.2577694102446861,0.224148078818804
360,1.1033978043247186,-0.3531150351070849,0.7208773543266817,0.2582200507109268,0.8221452111588841,0.9888602385099372,-0.01438191192676528,-0.5368263371356695
361,-0.07258450072778139,0.01368758317734503,-0.11228515500263325,0.08496802630294942,-0.3443680559395549,0.06945494405681675,-0.06237058221787903,0.4663824437111639
362,0.271171982087991,0.3768589464583648,0.17860340729757718,0.38645616451100806,-0.21618642823254475,0.8861731761617532,0.3182926414178141,-0.592624223947953
363,0.22230121235841338,0.0065355209588832675,0.24857699192470373,0.21047961865097842,0.1934589339639716,-0.8124349549734533,-0.3984203590593328,1.0696293345687327
364,-0.08114696608357319,-0.09573937739686816,-0.0968383519527602,0.053809208582722146,-0.6404461268755831,0.1580827243554622,-0.44309311578050703,-0.3903941993357876
365,-0.07517300616713168,-0.07250462951677661,-0.10143135298607664,0.06825248211400009,0.05918855691128293,0.05643346182628617,0.04848249657769505,0.08674675857905739
366,-0.032489436280894235,0.09938643449534901,-0.06777402195810317,0.1380288702620216,0.05754975954075325,0.09842440720726005,0.10338134382305142,0.06905548915014996
367,0.24604068082921982,0.05222309200206243,0.23394430926604515,0.2369827310320175,0.08853495800468317,0.1120352337849729,0.09227218430096115,0.11101540812647936
368,-0.08362745638033975,0.3631135338615451,-0.07073741338820816,-0.01762991797609359,0.09848667737311562,0.0712602497383573,0.11338302692632041,0.06356343453704727
369,-0.24157266844745287,-0.01902127913757845,-0.13542606243991928,0.02380293442398701,0.07214538655536976,0.09964575892086436,0.07841637668685089,0.10786636782262157
370,0.1054005485784194,0.2433479651984759,0.027166732461467613,0.24054339515639434,0.09040344420712854,0.10084440951886416,0.04219093935121479,0.11878083175975239
371,0.4907631457941506,0.37808794166768556,0.4203021665409371,0.4852643946386147,0.11325962813146517,0.0581566345907791,0.0480755586855201,0.05066715186548541
372,0.13905262573469346,0.01499245272484323,0.12143300378186017,0.17687495647259688,0.1306844891536281,0.09101982371442427,0.10406990537037057,0.12079253574656336
373,0.011541537343371211,-0.0010715615140360901,-0.03457977066886808,0.1200555097987287,0.07620733971849021,0.059420726187629586,0.10666759948197875,0.09519616101815807
374,0.02583386902308904,0.022806122343309976,-0.01893498864538623,0.13421279967831512,0.0713299357039131,0.10633733392998743,0.12868625999992586,0.05969653594635084
375,0.19431007361007846,0.3203813627791885,0.11077385540054896,0.2976557159379415,0.07683335952231664,0.0893210426325132,0.12047152508222293,0.12980867835188414
376,0.11086813725881761,0.022654570669665308,0.10894206553038943,0.19087549879442145,0.05235778492600853,0.0915972750971045,0.07661499817342587,0.10692666564110592
377,0.7709062351184003,0.12321127100493479,0.23890221359928654,0.8199834943249108,0.12285842705171501,0.032450425007769776,0.13000653635899587,0.10943553031635349
378,0.04737193019582919,0.07623326853181178,-0.02466912115028158,0.15652772070732168,0.05397529898249542,0.045336014252876186,0.0743713615375442,0.09737581412876482
379,0.3213144578864202,0.45251778986388314,0.2174903435100447,0.3743056661308496,0.10937498165126018,0.12463638575535774,0.07616886023632849,0.11072023951044645
380,0.38818864060558256,0.1593016243145171,0.3813563257776007,0.4133868362066021,0.08524553055131551,0.08257422035532097,0.08081457227279727,0.09187912874990949
381,0.017544664289673884,-0.014300594072057415,-0.015402745532644091,0.13389808948976367,0.09386802449139905,0.09722026901105568,0.10195881429571015,0.08997325924833152
382,-0.007616557632383059,-0.01089739986035676,-0.05185628247905266,0.11689383306578138,0.10456395241447419,0.09242038950529377,0.07243114443049681,0.017297878626476533
383,0.004738565547746876,0.11241263459778161,-0.042598517567281946,0.12780969239530104,0.13385152861873756,0.09584676730511602,0.0566684898614986,0.09780125379075606
384,0.2883583177094752,0.08236642458119331,0.24199736952890782,0.3451113805923265,0.0730032971057745,0.06635383184990216,0.05813564310413714,0.08895697836414715
385,-0.044066100620241466,0.37666295896782653,-0.056202075853913236,0.09011176782969565,0.05147866833365234,0.09914246563752664,0.07386232417522964,0.10684492001045769
386,-0.16856124888469476,-0.0454192998759082,0.35309208650050183,-0.004736980366496835,0.11896456256097862,0.11160191528916993,0.06319610516390675,0.07754952971661844
387,0.018853502759106133,0.20002945976949138,-0.040466172011480395,0.1361310055344488,0.12140377543862467,0.08411584709167642,0.10943570246768373,0.1427014449465352
388,0.3994552368319869,0.3118580084976571,0.3259797409942292,0.4234848756866053,0.034733493643333946,0.027726160615452536,0.10364588677596905,0.09926050285898073
389,0.09607730881878107,-0.06898938009188721,0.10749379646518631,0.1591104091138157,0.06685410241182521,0.09022124482976798,0.04774370771124101,0.04600921495064419
390,-0.10229676115333963,-0.10009062653951645,-0.13042298632406435,0.04432447972159631,0.02294905581602305,0.08326958400566697,0.11272315000516944,0.08208735510931967
391,-0.10217829063884659,-0.08926235976341557,-0.13199586223452936,0.04696346136287716,0.09215611682166298,0.060565509974251884,0.0637104100995031,0.07804313999155564
392,-0.02160958599536955,0.19722416187347724,-0.07510318480719624,0.1714892871173317,0.12905891658614654,0.09058321865324553,0.07698969938770993,0.10750765506054027
393,0.07323474975962846,-0.11380666112146531,0.07683415255358444,0.09851477960695965,0.030599456517776794,0.13021817653167417,0.059672124243717664,0.09347297236898526
394,-0.2467113043889007,-0.029007313479227526,-0.3197162022577468,0.7211459558481651,0.09713294651340453,0.021479689904225656,0.13754191431654358,0.041033801252488476
395,-0.2091081780627657,-0.06958006525981597,-0.3118649773348312,0.042704046672765616,0.12054075560563135,0.12752318030074988,0.08361697930965042,0.07802166135531062
396,0.053727296480522546,0.31118552288820067,-0.0023210674691493405,0.2644061025394906,0.04374440261304643,0.06924638758848517,0.10368805331684848,0.058531449171226976
397,0.34666214832632614,0.09042908866963056,0.3023323329746578,0.29149710140154994,0.06540403060805522,0.06391061559864723,0.08772530772611635,0.1204717797656902
398,-0.06506506795011735,-0.13671562166834256,-0.09953655746685658,0.030502234859826893,0.07841980826623687,0.05922132510195851,0.06266967968240614,0.11197871408894959
399,-0.13068726758560895,-0.1264890569397364,-0.15967962216494586,0.026552883534177618,0.10125803625960793,0.04559317683857048,0.07622392887141166,0.13298982430777603
400,-0.11233572534720088,-0.07000818454879626,-0.14053860008835317,0.05209703905674984,0.12158863971414578,0.10008869452904548,0.06177523904627602,0.08711692258067184
401,0.1343421944736859,0.1489401225922935,0.12650400398882966,0.26821000510837656,0.06923484655648418,0.09448857785173691,0.10705774787931399,0.09028993702232224
402,-0.052850995275247836,-0.2113140037168265,-0.09391197711182098,0.010675799607771652,0.032857038343965334,0.09190621517287943,0.08320595707290732,0.08099207015013674
403,1.1009876141379529,-0.3758521469531737,0.8711619934070024,-0.1535142140958077,0.06351690271864865,0.07002172218585072,0.08012362061127555,0.13069447892999755
404,-0.03980034489639517,0.02102163144449065,-0.049267262392309,0.1372226899748994,0.049754167701370054,0.0843735060894886,0.03996717219901675,0.031198091863404012
405,0.29981387767923184,0.40652829167435345,0.32485926905630835,0.4445113353556689,0.0929302351071971,0.10613468654450933,0.127385735270425,0.05842630570163286
406,0.24512159853774507,0.0681582436522355,0.13852311130100725,0.2016887433806056,0.13214480414347346,0.08018890810627703,0.07304916465063147,0.08244371873195662
407,-0.042693132094584585,-0.06580572582077254,-0.06860552749352683,0.07942193709495404,0.09766800877882931,0.03066828019022889,0.06169774036016783,0.12216089658591718
408,-0.03339972453721601,-0.04330350432356184,-0.050849092414021524,0.09544353503398245,0.1025762842124848,0.12534948705292287,0.03238614382082283,0.0524594923190676
409,0.01844184418559114,0.08045414175663856,0.058088428202602405,0.17480364761978806,0.0766896592731496,0.07830760810262652,0.10033219498930833,0.06835646806360703
410,0.2386955513265121,0.13799532234892808,0.10341868792124864,0.25810972426361367,0.09158702641426394,0.117805551990656,0.05733988783480109,0.10378986170286474
411,-0.14838602141954177,-0.10386979471487379,0.16991659859392338,-0.00772542339441451,0.06343751826436721,0.09556902269603078,0.09889145860207345,0.060267861713876
412,-0.18866421024331484,-0.056699770459652465,-0.02048904383907907,0.021319803538205007,0.11173823453373,0.079637754637225,0.03724374225020681,0.04393840852458403
413,0.155068448195388,0.19199921425840139,0.23718158015514956,0.246902804171096,0.03607865765516098,0.04520691144371723,0.07937884742702864,0.052063653996257064
414,0.47038115024749205,0.4406974894691966,0.3726609966836534,0.5027061089950923,0.11981297633697811,0.11846587494356478,0.045539309997471314,0.10382856816078478
415,0.06773060971166661,0.04336847859334775,0.001639519255391464,0.19283615873014615,0.11193415751062277,0.027507016572889367,0.10753863194320414,0.05193927658611818
416,0.0031684417174329127,-0.0029255290055202887,-0.0157189207956831,0.12226752566486898,0.0472971568314704,0.08667703012689777,0.05615060092101256,0.05624005804013326
417,0.01710397480857556,0.013258800113591374,0.005442251724692593,0.1328005505547476,0.0749462551200944,0.0635170789430407,0.0778368733850922,0.06315629012463887
418,0.28556750570925604,0.2831615145940315,0.28715637751144285,0.2700749085824743,0.08984658364039258,0.030070388776222527,0.09207060045242774,0.11058228760703823
419,0.03089251508807478,0.031018152815255384,-0.040699527654936174,0.20344537642668004,0.08322533553021584,0.04514336571289498,0.14839411356996962,0.032992740017783406
420,0.7408151605504464,0.9292567701762319,-0.2572268789328013,0.4628458492178872,0.1238955260060462,0.07158607379185618,0.030445118488849343,0.1234668415340074
421,0.024108696246351202,0.03901510586259743,0.06955766149301656,0.1282516887614964,0.07812452345008122,0.07477799396469552,0.07580064229007273,0.06301504327021518
422,0.3894914819366845,0.3933776999176518,0.44529671284388594,0.3259034350365556,0.09400845345976606,0.1276514560595999,0.03644777625396995,0.02886257185396599
423,0.19453000588897762,0.20577158998103517,0.11202311037241663,0.40419831703465636,0.06598277233271879,0.06639909014059722,0.1289792633265199,0.06038480254969154
424,-0.052318618640648296,-0.034384258484340235,-0.06037087929996077,0.11084321529852859,0.07009834263559593,0.07029481575550839,0.08258248107693988,0.10103611327581803
425,-0.05510514193595373,-0.0379787155067684,-0.06060977024480568,0.08837383931183695,0.08321220432398094,0.042953703055602206,0.07088807554554098,0.1345505503756033
426,0.001638858032400825,0.02770767805924862,0.03844136366639589,0.09646914397545625,0.04809184104799391,0.1165911781130757,0.06799764977597554,0.10614902859155637
427,0.13415641530267208,0.1220782828927287,0.07220175123902928,0.31532141542256453,0.08339496157632269,0.09343811271677262,0.09930442440994672,0.05196321873491155
428,-0.24350687164168808,-0.16189871683097679,-0.1385066921890909,0.06219341601641676,0.0704076163981093,0.06207926406486534,0.07588417997506425,0.0421456421831765
429,-0.2121399480445931,-0.1276614889853836,-0.1479231798529566,0.0038593872674364538,0.051287227927024594,0.04025666696497762,0.12048691304995486,0.10369481732059037
430,0.06238180647659236,0.10713036639962781,0.08030909260487207,0.11775047881770606,0.07374954364622462,0.08696920769944205,0.13732961230350177,0.05514896976333872
431,0.3646288423373435,0.3326231386399211,0.3394922613437912,0.40771112464410564,0.09180508113683729,0.1158394453435036,0.136580670132912,0.07914298080858204
432,-0.053859591800585804,-0.07186828193789008,-0.07765304114304067,0.14779044569218902,0.11020057130814744,0.07569882392653578,0.06680067329192317,0.025567426885341964
433,-0.13610507718827586,-0.12091233503838406,-0.14803757085452457,0.033645825320057166,0.10379697317915478,0.11109937068180069,0.038488271370886354,0.10255096741891045
434,-0.1271535325561437,-0.1106161372069761,-0.13935842052431724,0.03876039629792549,0.1014693763620521,0.09503067198265872,0.07852080119371355,0.04806567623829712
435,0.09488987134775645,0.16863320399674853,0.09069276439190715,0.1642597965744701,0.06015315354907446,0.07725524816301423,0.07039722298617883,0.09106670195516492
436,-0.07363270807439082,-0.10207188092549274,-0.09226538965739495,0.09548955352148653,0.06445947045032281,0.12252858275975112,0.1071447299085198,0.09084062481819456
437,0.9847081166014541,0.48704350575335176,0.952408195006592,0.7287307744935113,0.134199341454586,0.12682542180971534,0.04774576225315026,0.0888640023134
438,-0.10389761742690362,-0.08388111704558548,-0.11268160431516855,0.042582674722263014,0.10343614346237803,0.12862427176715704,0.0161477854524739,0.08149733434760939
439,0.20907092919895176,0.2901005018210606,0.194178556853711,0.26843371203084987,0.03938648674044337,0.042834992118345405,0.05906874318033751,0.07599780488361606
440,0.22479958450347293,0.11047057192456267,0.2079104572054431,0.3052161368612788,0.06823887429965961,0.10852056353337203,0.10666730642642368,0.047778845760116796
441,-0.10846422205388406,-0.12100041366290232,-0.12013306837514431,0.044526798300385695,0.07609705370950122,0.12132823224897643,0.08989296393899071,0.10270149562860766
442,-0.11018428928414054,-0.10662873515737853,-0.12173499027456575,0.042343573684831715,0.030575078333979953,0.015705655183975615,0.045017928255849424,0.06799563407998029
443,-0.07591214526490903,-0.03669545799389129,-0.08784586197159072,0.06840431245952283,0.06852592623077132,0.06526513495750028,0.10393363540678735,0.12626736503949773
444,0.2203165351689722,0.14002510439611315,0.2012395813236405,0.2957335042516439,0.06527136123647445,0.1138033728693209,0.13086572702182214,0.034647517866293
445,-0.09815709767182118,-0.24357520325589663,-0.11907558450257977,0.042397222425996806,0.07536782936658105,0.074220325541165,0.05491270016994178,0.01908459385369968
446,-0.260946622881857,-0.23198433967051818,-0.30834271425257254,-0.09072998712283126,0.1085744699519899,0.08513493407293463,0.07523552891858457,0.0456516029931793
447,0.026467530368227188,0.08942151270210691,0.016626610449297363,0.1509106079501722,0.09070991143142468,0.11147489867301684,0.054903407597332275,0.07842714149156961
448,0.42096234386276055,0.4078991536480028,0.40583115525882574,0.4598768064782539,0.13041947784442934,0.10422921861280844,0.039799812808940085,0.06464956921627321
449,0.0930819002515853,0.01841868292841936,0.07499201580134213,0.22839113992332183,0.09811353043816526,0.041249325063643115,0.11108958319168692,0.09526292910237985
450,-0.0390493818822048,-0.036574929961072145,-0.05460007040829434,0.10107713921641015,0.10101460535679273,0.07253787565683546,0.06843474023527459,0.09034173090769153
451,-0.018445997959794957,-0.013288725791183176,-0.034226343283310146,0.1156067343819348,0.0736142761117905,0.10809644918352276,0.04314857718846052,0.08493396525450263
452,0.14586862589229443,0.2499705499884335,0.1251911429348448,0.19542978595476024,0.09256443121454973,0.041785447572742475,0.13665596814644912,0.049811234100620855
453,0.09104366350727372,0.03061572001505347,0.0763760536151526,0.26500774203521715,0.08580796344345477,0.1038008024817198,0.11913141532476024,0.10664620840104824
454,0.6327360848776474,1.041711234902047,0.5459369931781393,0.02841264711577235,0.07439657258982527,0.1250062546289792,0.05771742327563038,0.11164690239661151
455,0.01335604769320492,0.06326420536590005,-0.012182829696633257,0.07206617031410395,0.05525042222166018,0.10224605005282525,0.05176346735504525,0.11574896640126603
456,0.29238625667668716,0.42203568212379217,0.24710577343455864,0.27004903667264224,0.08450074265967297,0.12399442580809328,0.08332653287990363,0.10469189101755719
457,0.3727894567682202,0.23827900589902273,0.38542927050854825,0.47581989931598667,0.04227604696810487,0.05581263764512777,0.08160965257892147,0.04389968376055176
458,0.008435684489777162,0.01330109154061998,-0.003258887720757775,0.15993595989556542,0.08948328140195551,0.013440069013936884,0.0628801464871035,0.09073680540099939
459,-0.009965914930846143,0.01680285783104124,-0.033086948408114936,0.11562485214120133,0.130546319268807,0.03264111225210269,0.0798710614054958,0.07476097926515456
460,0.008077798978889827,0.10643609911893737,-0.020424106741983084,0.12413559180433487,0.04658156697376737,0.04336041461720844,0.07539836714959514,0.11580260606076496
461,0.29410659075026657,0.14595241849476281,0.26836139829724315,0.3246233624285233,0.04174525683848629,0.0844124884571879,0.09420069116466555,0.03889521784390018
462,-0.04552720695381174,0.15245093662537346,-0.02554208686052295,0.13582388308651272,0.12084865673677078,0.05142033649921114,0.08674703154298487,0.09118001501719139
463,-0.19566911757831615,-0.01499576418623838,0.5706597017617437,0.9412227571237984,0.08994965571844186,0.10420097795992632,0.07319671489433509,0.0478332243409597
464,0.03297532515435847,0.22583549093892197,-0.022183656493721893,0.1525960292427878,0.06219685837083841,0.06253635112434353,0.08511265879480277,0.1026582092887115
465,0.41552538955161566,0.3339241692856426,0.3345968215983026,0.423137751638088,0.11554698581493453,0.06260691131012379,0.07459661925179643,0.09445499604733808
466,0.10755243621167099,-0.035254150937088,0.17823670536285896,0.2737841149924908,0.06954720965997421,0.05175591044229008,0.07247994284960624,0.09052849525213805
467,-0.0875417356991326,-0.06220385307507392,-0.102630454246941,0.08898024899476709,0.04991753009330526,0.12166607215252642,0.09144167382247785,0.09433077983723095
468,-0.08805123329516268,-0.048716496515018304,-0.11090893944557173,0.08610268335172833,0.044898754970939384,0.0707569461019637,0.09759487817002449,0.06731061018310808
469,-0.006698240210873951,0.21238037061320836,-0.0834893854281975,0.14736060387611172,0.10532538381874859,0.0796319349198689,0.06402498453367739,0.12301568581718002
470,0.08208946586303595,-0.1335111361675504,0.1653360120199171,0.18343699288272186,0.049888451034030515,0.0670871864908515,0.05464242202574679,0.06536276872896125
471,-0.254385751390651,-0.36429230525871903,-0.19652556865547965,0.1429043956644297,0.10988208272749526,0.10704842342726964,0.09447240267184348,0.05318586133009563
472,-0.2246768396266862,0.005667062887001029,-0.4,0.052417174341174766,0.09948305246198894,0.10832236010257949,0.12877198157045233,0.13348172807490308
473,0.04063112404608349,0.37225211698477334,-0.06935653529348662,0.23953956338544402,0.0634274947308946,0.08009562986592436,0.09812512429285677,0.02790919461439876
474,0.34587218989281965,0.014089248078513583,0.3076553186750287,0.3457688537331163,0.10922354732295861,0.06553900546737972,0.050108344642968546,0.1084761613829718
475,-0.0691912900292534,-0.12375101285525497,-0.036888142478153196,0.051697620808927536,0.0739642044712856,0.07531634405890049,0.08442859251250086,0.07580173893966034
476,-0.1499033988361953,-0.11425318588646882,-0.17717328123415935,0.03460556952985794,0.11764513010033564,0.08071832881343859,0.05997780210643562,0.09581123231074216
477,-0.13581985406009417,0.024348503191803872,-0.1642746063614882,0.051394057749749644,0.11591205921617863,0.0661682740639266,0.11805307662414924,0.07877990521744507
478,0.07611353821276129,0.0040776385567995455,-0.016011464842135115,0.2696614603830433,0.03883842994449621,0.13683915384546408,0.11470210753405741,0.07405862462572343
479,-0.05886947597574782,0.13850866004696616,-0.04905621916218422,0.005546962293250024,0.08306959165759273,0.03839177516539253,0.10512693293146914,0.03565817142022498
480,0.7630076540176126,-0.13426199280488116,0.2617350544054491,-0.4,0.043949147657322815,0.13257013968426265,0.08530192649752315,0.10278703089712998
481,-0.09471121161096524,0.1051785058572896,-0.12361456020409739,-0.09640545857498606,0.0960525978023823,0.09444128989969712,0.13412954964429616,0.025215960874725163
482,0.19728372910703784,0.3376493293012117,0.1538466709914591,0.2262834994361287,0.09550833043155672,0.07345203241454377,0.08145233997552034,0.0651335960759372
483,0.2719799322669727,-0.059481889751931416,0.2299898472657056,-0.009456475394831576,0.10186262950453977,0.1018674214298645,0.1215440433492604,0.06666786808300587
484,-0.07834602329474344,-0.09991791355228236,-0.10243141276621764,-0.1026325790844278,0.04700909489568608,0.12403909101833518,0.07429530725140723,0.13718656481647992
485,-0.08346904266709282,-0.0743643586943214,-0.10132208267098586,-0.06961116906606762,0.05344546601824735,0.0792870966825851,0.07412106850729411,0.0313319158106505
486,-0.049753508561339976,0.18195120442403334,-0.059923125818913625,0.04502533395304664,0.06068221949361062,0.11284799274551394,0.08498565838325692,0.11341226690321583
487,0.25558365387887116,-0.004853304846587969,0.19629536227821986,0.07935210921136787,0.11455309364976642,0.054994042711012874,0.07412752942700425,0.09914774057289108
488,-0.047990789491453245,1.0984069418030118,-0.12581638247880456,0.04348360093453457,0.09446894855717003,0.04289485613086459,0.07377181194426152,0.13676266496198183
489,-0.09305114624467381,-0.009181534579206174,-0.23923042402189854,-0.010562875573618569,0.10664055312828456,0.14108519659107455,0.11475024148792479,0.09033731731378455
490,0.04333743943739882,0.2955696957592613,0.12285665285459324,0.18596081861329905,0.12356206339070944,0.05144392555051412,0.11170529684679455,0.1036979372397555
491,0.4400862380122257,0.3525540686694657,0.4603173157647873,0.3925020593614206,0.06787779391841306,0.1350374524336419,0.06567019185020516,0.08291984155946193
492,0.13750242773581567,0.0031802116307652617,0.0676419087420575,0.08765818082387872,0.10943574855184479,0.07375707150511208,0.07375568937558284,0.07339868338389414
493,-0.018805537094182312,-0.005548330749215291,-0.0063030449303145275,0.055726501048048716,0.03822155632275466,0.07419336410903375,0.07492594865226467,0.10614586874115628
494,-0.00245449686965421,0.019682489355117516,0.009691267889139044,0.07656227665443721,0.1244961319942332,0.09097459373542248,0.09726953959959186,0.10420683486504555
495,0.134239783221888,0.3214497974077619,0.2607558731152162,0.27328172896371905,0.03235878476890548,0.08587495669151565,0.0724864276770547,0.03608840078208816
496,0.11961252051466864,0.02074952254913459,0.04562804762484912,0.1267861801710899,0.0453019733928136,0.062376712979602844,0.06830989227741259,0.0769193875284655
497,0.35869857586031095,0.3590055418303758,1.0151419388309701,0.9939334812304236,0.11293025046937695,0.06069247170094881,0.08443769818886064,0.04333387292144303
498,0.005381944812792916,0.06855938412683482,-0.0037231994035276106,0.12391275065874952,0.06002328765984917,0.034119766409626245,0.08282567174461128,0.05898231461439786
499,0.2601833621908157,0.4415585663434435,0.34639784660431694,0.3613806164129981,0.08154895270941943,0.09752194777792349,0.10991344932292474,0.061510192523264326
500,0.38681122834205195,0.20815311608714215,0.23211475044151864,0.36108733469377163,0.04261824331347776,0.0877305543025478,0.07441858795732362,0.03219764248298364
501,0.0002493393154030521,-0.011850705267689887,-0.05302215555023215,0.10270290108980173,0.12670817428179768,0.03625080415780177,0.037020735154356874,0.10188503672197077
502,-0.030207997681688525,-0.0115686262930354,-0.058169577046081555,0.09293369255916828,0.09439572012065393,0.08719463760723771,0.07877904512140115,0.07622062694456527
503,-0.01904334152094339,0.05638374365605231,-0.02371547272308938,0.10874550084336787,0.06576211909750201,0.10637965774546501,0.13588909297556634,0.10843107840730494
504,0.270312376227543,0.16413678821620936,0.19870083927758575,0.3204468792245523,0.08811484860533648,0.04281729113491471,0.06658074751567887,0.05116982573972271
505,-0.04567506893549561,-0.1842472423613832,-0.1824185821307982,0.056241833818409526,0.11738383283549512,0.09907302867348866,0.09852193739383137,0.07641727249678566
506,0.008553389171988446,-0.13812072950706994,-0.3567890825803296,-0.09141525320219535,0.022039413361298246,0.11060495489195575,0.11893828570188031,0.1064617185103253
507,-0.005102482445302259,0.11341388115577333,0.01122272197152907,0.13508358480397054,0.09892624416108503,0.1043350513000916,0.09491435039686251,0.1086601382795483
508,0.3730034455425022,0.38825085507287327,0.37099435122735236,0.42355400132313503,0.05450080734889918,0.09395448660317762,0.12118805561682773,0.047455203481347887
509,0.09817201568214251,-0.026149364746545556,-0.007739806765998558,0.15275045721933977,0.05933085685293641,0.027412721652763677,0.058136286118773105,0.10572911259504919
510,-0.11260417318516441,-0.10073225527938773,-0.14143478407682697,0.03902910524660791,0.09220885942175461,0.09820173052700988,0.13109125282344142,0.07046814839447706
511,-0.11196749769500663,-0.09458544276864589,-0.13727006912884332,0.04205234434972688,0.0940477205846741,0.12106630446526966,0.10028663376529492,0.03864823431946791
512,-0.03463286161214146,0.13952770989806051,0.003976534637221973,0.15740425104461686,0.09943919794900867,0.12871255431081485,0.1163939830733395,0.08260050235229904
513,0.06494668373137796,-0.0685947615006916,-0.03458049848821082,0.10601909089992534,0.08262565371005347,0.12518248119315367,0.0702376931003431,0.05357649916236917
514,-0.26676801374251896,1.0749547443859648,0.13589243780455107,0.5144546365448208,0.021848655471501242,0.09002406217820344,0.08587181802857241,0.11755140474845906
515,-0.2047665788055642,-0.11907060839230371,-0.1597048690347847,0.023521393007073232,0.07461293154140829,0.02737602090719598,0.10092037385778067,0.06811170614935096
516,0.051791080519420496,0.19582557633406017,0.08972138245896,0.2286990814951516,0.06390120410355091,0.08012371478139124,0.0976903945065774,0.057009308650567816
517,0.3239754762001298,0.19743708100379576,0.2348694468826854,0.317988648197987,0.05990603860116567,0.11900283839970449,0.05779393079735092,0.08604762191462435
518,-0.0854649528112924,-0.1347985264488249,-0.14161382567534275,0.031000369830400998,0.12188255780051217,0.07829997070701074,0.09073466463573132,0.1579645760882304
519,-0.1370157432789429,-0.13987569053995597,-0.1614969346525336,0.017805775228001475,0.028220559100566974,0.06893609253421387,0.07962619096510422,0.06617986504785567
520,-0.11819475867501716,-0.11035019293720605,-0.13659519009520954,0.037387217922025096,0.10340599163595525,0.0545020139337451,0.08007747513995792,0.06463513373341773
521,0.15497477367280288,0.19414181683984266,0.1665991933512262,0.2744556906559448,0.05481454704974866,0.04782799035085965,0.04954357449482297,0.07308041647813965
522,-0.07649610657570599,-0.10815970850982387,-0.1263429623094755,0.04753283087977489,0.11023776229359496,0.05134152437191829,0.11621324927110283,0.12570601496914788
523,0.9719680555582354,0.04331441597122754,-0.04154142755468704,0.2600458897255734,0.07206798616290686,0.09109149076758513,0.07316167131337238,0.09244521808423563
524,-0.04007174266926211,-0.028969380556052138,-0.04981837362429886,0.08741939579530494,0.06526505976625713,0.044427940365840156,0.07238510250059743,0.02943252345687922
525,0.33099518621108703,0.36325746730739905,0.344670570355875,0.3902374410868077,0.07531341022997058,0.08869900034711793,0.09069009171297651,0.11133584352377159
526,0.17781526475479492,0.1322544581006847,0.06921106992605686,0.2500018933279652,0.07309058862723548,0.08022479125736919,0.0680502127946595,0.04176239149350011
527,-0.055148076607689445,-0.06612016009722216,-0.09299335590891089,0.06719415234206605,0.10267312541885258,0.0962452747385757,0.005057375502029673,0.06641644243882452
528,-0.03876993430494874,-0.046627262447836215,-0.07149786729709895,0.0801229246642613,0.01936132474109143,0.08369770625910454,0.10135936532656861,0.14185399609684055
529,0.04693931288609704,0.03751311990774853,0.05834538904816877,0.12563643552357184,0.037139000493079236,0.07180170999185487,0.071951486600899,0.12271968998079381
530,0.16323556346528345,0.17843439538146177,0.07720155119161615,0.3112775035423465,0.10300269436697712,0.09941020926159355,0.06458994739223166,0.13967980782858594
531,-0.1030798827742983,-0.1773726387354237,0.18575046451911537,0.03762960722523445,0.08282691576286186,0.03059767787196825,0.053700992871638674,0.07253701890548078
532,-0.036616796310972755,-0.1352605239985537,-0.033705871608150695,-0.10638552616411884,0.07855314484416012,0.08554520393631133,0.1076128444912334,0.06525739649520004
533,0.21582207728994673,0.16158313758708243,0.21288066889344015,0.19555256707280533,0.035476760422208584,0.0770599685093718,0.12395355861321444,0.04825942149708194
534,0.42443024822315634,0.4379138792907772,0.40723151685419,0.49070176204749616,0.0850798048625508,0.05454987832616706,0.048693525262690426,0.059589779357772835
535,0.033052758715860886,0.04336811500311616,0.01197096355486471,0.21813518648302166,0.08536755574195469,0.09479405478405799,0.0939071265262183,0.05461645780185098
536,0.002151773106689736,-0.0019225139609122532,-0.024448642968775525,0.11698640774484548,0.13782406240398454,0.11229016874359668,0.04281222941463003,0.05728072029846468
537,0.020779787487614165,0.014735495139507337,-0.00897238606755274,0.12700339397727933,-0.02071867302591287,0.21386009396068364,-0.6747063401663104,0.9251511130682939
538,0.3127000077968224,0.2956694917938789,0.27225506999442406,0.23699666474353243,-0.3919859177544094,0.6790161236950163,1.0620970542099122,-0.6592818496847866
539,0.005635355587704227,0.016076273984568623,0.007093039751574104,0.2161075464970975,0.12278628140509955,-0.248658767861862,0.5958534194770084,0.16329533428104978
540,-0.07961799347787402,0.1905963326175386,0.8925046335534627,0.34939197576175385,-0.1532825253860565,0.033557519938683715,0.3601393494905166,-0.41569108745260896
541,0.06441589954541083,0.06115623697465333,-0.010584618025408499,0.13170449033894716,0.4010496198051318,-0.6887779899863494,-0.6584969736231472,0.5417927656589743
542,0.447417701434218,0.43010829504721415,0.3364388555964566,0.3231100969363765,1.0370055281962203,0.13416958188219236,0.7500864353066252,0.2569473341235349
543,0.13429676574365546,0.11076805731156225,0.22881501406486526,0.40433782350793923,0.10641969157056756,0.23710452330807308,-0.14898200221788546,0.7478498693849667
544,-0.046914059263720886,-0.03778764364269388,-0.07294699190171294,0.11581716631451822,0.6344426726305881,0.24971997612678665,0.7098151315916819,-0.30186821134823383
545,-0.04664851272451653,-0.036096745107395856,-0.08333314759917804,0.094373805821444,0.995249304301506,0.08503583731033032,0.6453793586851183,0.191083425711238
546,0.05705634838130891,0.1411182015462653,-0.061520309312089794,0.10382896666811003,0.7120245597255712,0.5315919173066773,0.24104324575165056,-0.6177576666825143
547,0.07433052099145016,-0.0011896271793526703,0.20382222826532803,0.31281002670813973,0.0969545218975548,0.06320558294271308,0.04189635156468264,0.05092712938816831
548,0.0118683735688207,1.0764117826305224,-0.14667062359717298,0.04334707625309331,0.05475699067131817,0.10907952119838181,0.05704393360708652,0.04502519274833
549,-0.09178132141648432,-0.07731337963622492,-0.3153398545884018,-0.13478273090987064,0.11446047165206148,0.08203029588642947,0.08520595276032769,0.08218024570216073
550,0.13452106847562173,0.2494228781780825,-0.05440374090213129,0.12868182632700154,0.11631211958569046,0.09777361923652081,0.10904321176402479,0.11461539314065705
551,0.3511286075930682,0.1485708198814658,0.3228857841183973,0.4069023121449724,0.06613607550162427,0.1301349410905607,0.11567040755191071,0.0543519650325895
552,-0.06772877639410246,-0.1287484658489227,-0.0033579851810283112,0.11837238583240461,0.09128379424659966,0.066820676993445,0.06685166066101221,0.03755912227972348
553,-0.12200357755101937,-0.1301776645043609,-0.16635465091292964,0.029059523125091857,0.09488502375541577,0.049293116618430076,0.06436566203910556,0.054898527254340995
554,-0.11290628090434135,-0.07875943753998521,-0.15863428615546754,0.03525445055589593,0.10941096124317713,0.04815333048270893,0.08457894889154684,0.047125069928431705
555,0.1544870826687107,0.08377675011872932,-0.03648368507894256,0.1956396475524479,0.12956866987481988,0.06312100922109948,0.02630968035368124,0.09475584008246662
556,-0.08928422609749576,-0.3315227118307099,-0.02818845003636633,0.06958850032646274,0.0951387763056776,0.09966968535816208,0.04975104066418684,0.05309046223413352
557,1.0595233392828773,-0.2316740347703772,-0.01570681213591857,0.9290840493337827,0.12229369008948195,0.05744864004638228,0.030013049012959633,0.07123725033678378
558,-0.09254405235962804,0.052459619012334924,-0.12276658498619597,0.031232557236582914,0.0940518060797385,0.06881610628764623,0.04176041176793086,0.062439592300981187
559,0.2508026370839924,0.3599683622883344,0.12846569678732,0.29267956565877695,0.11065404808159254,0.13446693081557107,0.04513853031717025,0.08845371907096145
560,0.18463789583164236,-0.03883394064404028,0.26260281718721157,0.24926570675617654,0.0962816249829345,0.04878610636645619,0.041347298738194004,0.06714312598613159
561,-0.11233161920916646,-0.10704496882329051,-0.10229397882565927,0.02584236915951038,0.027416246387241418,0.08184218902956239,0.042565517897681523,0.10933057433898054
562,-0.10673724885859082,-0.08736223134393212,-0.11528262727820077,0.03281294076496272,0.10865530008882389,0.07244101294988639,0.04004122437344739,0.08357066322628924
563,-0.06464774143921054,0.1486040528687087,-0.08447023250587476,0.07030426527923578,0.08951278683385384,0.10285706077483675,0.09993906771551139,0.08609658049931125
564,0.20689829334271426,-0.02090389715137303,0.20366454497531972,0.2597654509423746,0.11355506518534411,0.12386236954062049,0.05691419665640989,0.113188886220735
565,-0.13543172461846398,1.0881554432864111,-0.11386449357860068,-0.020553818234510413,0.057643427532862716,0.039425470500525986,0.04137373344795016,0.04325622115299845
566,-0.3433733012872314,-0.03329120670324631,-0.3300505030115382,-0.12834985367566998,0.038592772905077816,0.07098705048367733,0.05269184047402219,0.08975370893175749
567,0.04528551763109384,0.2868948798291968,0.03207648199497276,0.16947246650077852,0.09959964244634929,0.08878547367804188,0.07333003188720355,0.05424395764035881
568,0.43299118242291323,0.29502673117425393,0.4119684274481894,0.4565921710309544,0.10247332284054483,0.08796689511964441,0.04778773959294038,0.06741667781564961
569,0.08296350124136681,-0.023562795742378406,0.05786340389872713,0.16965172256237304,0.06700241768649093,0.09820053267378871,0.11278565992552873,0.07814254916096726
570,-0.03746723150307252,-0.02253972253553621,-0.048268386622014714,0.09263409159851743,0.05209298442035097,0.09836348520623293,0.06375347478418741,0.0837332305347836
571,-0.01647524027247299,0.011672812814467304,-0.027388925448470047,0.11002204309241648,0.06082166992547193,0.0257832163115194,0.10911028411022111,0.057138730146529655
572,0.1548492491287663,0.3025287092867579,0.17431044685103336,0.2531982979135584,0.10030937081538271,0.12309068112531202,0.08323625836901016,0.10372428012329876
573,0.09233493980759216,-0.01378650681099941,0.04412648405896452,0.1895000084790276,0.0449886307933446,0.04823208175336054,0.12864104636750642,0.05002753895311174
574,0.5877445595395868,-0.147177533182489,1.0941171319830092,0.6225269519365791,0.07726971276631582,0.05287220594367481,0.10326539814540528,0.1205330027515255
575,0.004303183033225688,0.08859455574469294,-0.010617420042474068,0.1433094094384526,0.03569916870382026,0.11464770683479154,0.07438094693402757,0.0395585938726092
576,0.2711282425527569,0.46949294850268475,0.30121614820063536,0.35615895852960855,0.07398909658225655,0.1387152635695579,0.043278617569977716,0.10278714400668035
577,0.3957968896207127,0.14821347839341992,0.3028294591630549,0.419089496839228,0.0559262566923311,0.12464719105419028,0.1128111720893567,0.14257919890781542
578,0.012301028126570412,-0.0024944676327290916,-0.02847976637905053,0.13890627261089883,0.03611048187164017,0.08829252056177328,0.09078240440480337,0.06313546010586002
579,-0.01571457586724362,0.006075199798096287,-0.03747066691505346,0.1255649932331555,0.10167747397071213,0.08719167368600153,0.09488994320036277,0.10475337277317157
580,-0.0011492809750063282,0.14137546220053765,-0.013118988133160425,0.1397168645212561,0.06571943027347252,0.0855344026222321,0.09144296431939872,0.11925233966431995
581,0.29307177912003857,0.1012871532067855,0.25541682007162314,0.3561630521956114,0.04700586552824183,0.04428571132131698,0.08345770000994551,0.09002844816531029
582,-0.010436322540143261,0.4241925813471339,-0.08619882935718881,0.09130049679160274,0.08967418213076678,0.09784801679897753,0.04397974930027441,0.06618819716111951
583,0.41007656594207553,-0.01673958175501833,-0.3097879504775383,-0.05263502265783593,0.08942796144680823,0.09574421451577714,0.06355578037467581,0.08613700308885155
584,-0.010599438608309253,0.2317816220316571,0.026006574965705742,0.16150186909125852,0.0173039341492302,0.05539591296419382,0.07280492030736053,0.11413629965156476
585,0.35737025717758,0.3427205955008239,0.39834826694195535,0.4464384266567796,0.06739527185999604,0.09050741170748276,0.07956567379884111,0.07596073489209562
586,0.1820110329816066,-0.03907782357235079,0.05178411890623669,0.16905328918239537,0.11517067579348718,0.1080316979147159,0.07401331432864035,0.044194510320265085
587,-0.09381334618232834,-0.07139575821520355,-0.10679871391566925,0.06347600409068482,0.08288342121443487,0.10771988467839512,0.09800281124430146,0.03337367618404403
588,-0.10020607844455404,-0.06233656650629954,-0.10527963392494954,0.06536445815072905,0.11699636796974798,0.11561617632439816,0.11256405978233656,0.09842714129161734
589,-0.06952152005291184,0.22195950946574916,0.013676908432076695,0.19970734925905098,0.07982150574763401,0.05377799669158841,0.05333153499027293,0.08905365197764134
590,0.17748925671827764,-0.08907715332048355,0.004789261935967737,0.10410262598260944,0.07815140998633456,0.08018930228582488,0.13337953098766422,0.09448809185191949
591,-0.18056670931421823,0.03521735170764251,0.033060360458906424,0.8338142392886024,0.09715344040438573,0.049058904055922274,0.044716700052310904,0.028508872971057975
592,-0.4,-0.040799744134457805,-0.13707972942511742,0.045916217210751176,0.10085054680692336,0.08567029224141401,0.07340545653709543,0.04130860997037423
593,-0.05057047751980093,0.33291542948633535,0.09950800348964367,0.2764183342468042,0.051001945557985144,0.11952842886716905,0.07856489225732254,0.02651689198890834
594,0.3364453191635718,0.11579764815163318,0.2616793220837226,0.2814156102034554,0.12977963307399565,0.020025735884583135,0.04843673310595466,0.10599410470093532
595,0.005539184798271923,-0.12553087061232943,-0.12779606932197612,0.02418721327696277,0.12541082996150432,0.1029682708576446,0.043452650569464325,0.12343213280412343
596,-0.15886911237888154,-0.12201271978977091,-0.15816514078139113,0.018108857563864045,0.07088556034856491,0.060618191800678095,0.041163205983705646,0.10332675133994969
597,-0.14643023516341652,-0.07276197091309794,-0.1402105190741647,0.03981580569828974,0.04389541385077224,0.05836894944569368,0.07258746598305785,0.062049921674332674
598,-0.03777911060392414,0.1509470484720331,0.1552636863950193,0.25426620955624113,0.09621722170659328,0.054006921910935826,0.10155220732471869,0.10380831927914648
599,0.029056580037707558,-0.2226534620026102,-0.1328092629049974,-0.004915939004405623,0.09650013457362429,0.07095927922591588,0.0910504128035379,0.1183556916974924
600,-0.220453046394672,-0.38321846469037363,0.0559691793679174,-0.16297697971095906,0.07155201525073569,0.09534402278974928,0.05731882215047143,0.10297290897569132
601,-0.17281824718096842,0.007747109994877099,-0.07972580224128234,0.12006018908633964,0.11067128071703819,0.09104700367037441,0.04906603085528922,0.0799674918876809
602,0.08188707899698178,0.39673037790300725,0.3139773349518111,0.4253359298377527,0.021037477354078578,0.12208906122474633,0.07699696817802754,0.11322811956397981
603,0.31429433268888374,0.07525841880876483,0.062295094353381764,0.18363903842376894,0.10385732174111728,0.08912599261322204,0.022223194386542054,0.09851663645620505
604,-0.07496490164473613,-0.08022764460277082,-0.12151991308540211,0.05823161789910486,0.0745627568525068,0.10616552034310853,0.03724727130627152,0.06753600022360105
605,-0.10060990444651141,-0.060330240545566294,-0.10163235996339853,0.07361246965634394,0.019766053925300984,0.10317523623798981,0.05809465065966578,0.11258261143451452
606,-0.0714538244142165,0.035337345140517284,0.006494535596329953,0.15210645997945693,0.052483044795228695,0.08064214724689257,0.08586748789188488,0.04302078259388504
607,0.23333065919831142,0.16167302527204597,0.0821863764338745,0.23950635589526592,0.07556090974347054,0.05745325744632616,0.09845434235512805,0.01981297929899933
608,-0.03982900278732193,-0.19899171870578797,-0.09818849258745571,-0.024342833292712474,0.11621783867777907,0.06673625140506462,0.08852299941399076,0.12632349283278094
609,0.2326283713064835,-0.2010185185715303,-0.09064526316508825,0.007271202799285947,0.11164946807133985,0.13087785420355308,0.08642116822818958,0.08112814971323917
610,0.039172430034544625,0.12423665295119923,0.15658525587284688,0.23519390528563267,0.03755877606646345,0.10196413713793331,0.11370903693551372,0.1394943299760964
611,0.43243310178900873,0.4527152446119227,0.417315171692771,0.49376188475156246,0.07165153974374702,0.08244388517692552,0.046496414891698555,0.08291667764914612
612,0.14724611458929726,0.06264875419253585,0.015004912853132435,0.1875396073274912,0.060131659920053246,0.05853584944410438,0.044503163029774445,0.1172185472655033
613,-0.010999091432036812,-0.009634514818005202,-0.0339735476027192,0.11949922756597564,0.04732635741804984,0.057386918825585546,0.10886451530203706,0.09575759758033492
614,0.004992603364921355,0.008951444502969697,-0.01467104375391276,0.1333004656225738,0.06572042584935138,0.08293965376542536,0.07824529888567375,0.07080141808774053
615,0.16290788520520505,0.23543629602592275,0.24096876146105972,0.2740576561531113,0.05136796776479978,0.0615657415579066,0.11102170976225126,0.07103433939187281
616,0.09491228148873554,0.06376423090059513,0.02710408332748493,0.21060288994192022,0.02919072164861183,0.04063777395611341,0.055284144571754526,0.08196454725589182
617,0.8587237404546136,1.158669381840424,1.2000000000000002,0.4878207644570898,0.11605093954786251,0.10964451187172061,0.032524661191024026,0.03999241384527141
618,0.011427243777775098,0.057649531031234325,-0.011942155309141333,0.14631453894437274,0.07947246467595755,0.05968063994847079,0.10915543213703904,0.0564449547409059
619,0.30654410081240613,0.37942068879044866,0.30394647091696725,0.34237831660715,0.048659651408923615,0.09547583257221418,0.11085890192831621,0.10762754018002015
620,0.3225930693580935,0.29329536152216373,0.3041500959700856,0.4364060725776441,0.05526775746937054,0.07503405158983258,0.11317191934504638,0.10464610592491863
621,-0.01746631466869858,0.007055760894694785,-0.04373618876227836,0.1375698201309533,0.07360628077153676,0.07096144270530261,0.05341363916133444,0.06081961603304394
622,-0.03159064172106124,0.00024313150705718156,-0.06234399932777929,0.11458456372620607,0.04632102250031667,0.0643074681189909,0.09690553079928206,0.09271138827560117
623,-0.007410617189942625,0.044623365654196945,-0.04857289408813781,0.12233167117905741,0.09173729392381355,0.06210643817607869,0.06440174411968363,0.06592074297730895
624,0.2396088022398688,0.1964912562911798,0.24580571041759136,0.3439651646667914,0.07567962459687018,0.033609692915930175,0.07659363282258635,0.059334923893542384
625,-0.13155234673770133,-0.18437042099844442,-0.07489778323230922,0.1008786731466258,0.10588581084511231,0.046746373497038377,0.033839893265663654,0.05227155664845121
626,-0.333197643975474,-0.13117611359429687,0.3115745917482259,0.1404783298639719,0.13412189876531352,0.04663777534301577,0.048344877657697516,0.09615177958425762
627,0.04636655752821889,0.12598711149536146,-0.0574560495991443,0.12932536127109484,0.03821337832223254,0.0844682814608752,0.05626210158719244,0.0532565792987382
628,0.4033892747136767,0.3719911891312233,0.3102323584826656,0.418528351605028,0.08130932080978077,0.07113086623215623,0.04599655889964537,0.07251542629325843
629,0.014748693703461602,-0.03597208279592168,0.10236550660568589,0.18323361888007095,0.06694771175328366,0.09322976707546217,0.11613092517640226,0.07258344487954245
630,-0.10928633764912671,-0.09135038600808082,-0.14416034386292176,0.047613357514055266,0.07937210159704407,0.11012151321742122,0.10893304149568955,0.052332915922170334
631,-0.10527366678592137,-0.08442974664943725,-0.1451002928532723,0.04979577331168644,0.030683534713980186,0.06921134397766782,0.08335396720120729,0.1332768508613704
632,0.060721338295463445,0.19049936570308335,-0.09548496805336654,0.1451257508314513,0.026270155031304088,0.046707083469565765,0.10845443998847096,0.07099828905162754
633,-0.0330601542232124,-0.09114558283762425,0.08647155108495064,0.12606678275546324,0.05449215272193292,0.08886726145882018,0.06915430995306655,0.07817556874632257
634,0.5743837975214756,0.19463940750162734,-0.30949678692763366,0.3671967824933857,0.03817307560031535,0.1198886999131532,0.10473057938365686,0.10767891613033626
635,-0.12190914325839625,-0.05993355079246243,-0.3778869260998828,0.03981227920753411,0.054476377534687245,0.11247809986982556,0.08026971656786146,0.07044787795741733
636,0.16056029718787246,0.3171290984943107,-0.03290673543348638,0.23344605976520594,0.04475556637297304,0.08231080707538604,0.08858212180592277,0.05139397394556321
637,0.22432562445161208,0.08008657976811484,0.3014156395571561,0.3399683367768773,0.10568619694488136,0.10213569850431721,0.08549870266885709,0.07439983355485351
638,-0.12573992350133323,-0.1257367526505715,-0.09289624391689916,0.047587221100821975,0.10581049891454165,0.04536548176784612,0.05800042908406043,0.06848435340629833
639,-0.13409489736396807,-0.11407505795355888,-0.16786477925185309,0.03059802186680388,0.04941622955848744,0.11369588485530466,0.08757073495965344,0.05091557281929861
640,-0.10414808142809645,-0.027831551393232012,-0.14836081948096497,0.04801147739125544,0.05354569102103366,0.10111627484324413,0.08412424595034854,0.042704405886525076
641,0.1853121405738266,0.08174792443232487,0.09225395029613942,0.28305253652182416,0.05544566523317125,0.12267141596898204,0.11090762246787361,0.11480285658097306
642,-0.1407631936178141,-0.23032024475627755,-0.09158721278810189,0.05934421693208519,0.08092940873517102,0.08487347246872283,0.08899113401813535,0.06240646150008266
643,-0.3521463540059879,-0.15150928795879606,1.0581138932359053,0.30032682028382884,0.06493602412442906,0.08985382572265156,0.0937400967656597,0.0934479044654729
644,0.005441803523635047,0.10839111987588257,-0.07944038373651446,0.10676584744260542,0.08127882932243734,0.05653001363656164,0.11006444316508276,0.07030577976595102
645,0.38513663293506184,0.3765908017968158,0.2722008753260402,0.4080317511530769,0.07665939140495603,0.09509591886379558,0.07894989073899479,0.09192033813151596
646,0.02482515500075544,-0.01400278741604516,0.1825657585163457,0.2596851174115604,0.12420418659241325,0.09743357172433786,0.11455139322099502,0.10808443567316726
647,-0.06903709679285841,-0.055334640818757885,-0.08302022450496149,0.08148430192394751,0.0821839969729087,0.052593604178869935,0.09658140503323219,0.07664791923634455
648,-0.04513637284703337,-0.02992713840912853,-0.06984805284510454,0.09386591468048261,0.09210411247425529,0.05384177686792917,0.08581836254968453,0.0645636074134405
649,0.1880972286649023,0.24704052907510543,-0.006997616255061512,0.14274533611702933,0.04701857317648707,0.04777744790026436,0.08595840797639143,0.0863886770620033
650,0.01908802575316476,0.01374290154915847,0.18175245348973568,0.3082239987227394,0.09722415887411533,0.09378008768588489,0.06658450325121677,0.047256379052719295
651,1.139849851314735,0.9688256276875392,-0.19633618096866015,0.020375776871437656,0.09496096370276945,0.10784054632621748,0.08096599582679326,0.10442889498210191
652,-0.0036612099508741003,0.04655023089409377,-0.16745171303556142,-0.08389413070416174,0.03331569438229069,0.023843860609755817,0.057597631788530786,0.08748970316664482
653,0.35001654757082246,0.4120281629089202,0.13580089683463592,0.21773508245717788,0.11679383016801682,0.10829601542537173,0.10133280629544741,0.11545630125816748
654,0.2547971823858006,0.24038787816234475,0.44147035374090604,0.49705226450553996,0.043861675385607424,0.0322398912079862,0.08138751541829797,0.06485349706496088
655,-0.018963667105181548,0.011243025955519903,0.03950016971470238,0.203597353462458,0.07807045313859536,0.06934550634107467,0.10441081334686912,0.13015321936033955
656,-0.013803282742781031,0.01921559388009675,-0.02513885142611605,0.1240697570775785,0.06886805778459909,0.04784614237558386,0.06515286967727589,0.0848353574160812
657,0.0366067975174133,0.09912725403755152,-0.010830894520658774,0.1342378064911367,0.092394889342676,0.048621477053673846,0.10070828838786199,0.050693756318668494
658,0.23315410919146784,0.18914650145034384,0.2395310976616446,0.280751327528561,0.0991400757785377,0.058877784193809186,0.025358037347313678,0.06619859882340802
659,-0.1611882942433431,-0.04655947777533104,0.014339178668647479,0.18650070291716336,0.10018349874446932,0.09954312081641628,0.0798466487340814,0.08983306927433846
660,-0.19886745600940872,-0.012018693020658444,1.0843561762451328,0.8267610410208336,0.08632441752742669,0.037897816550914086,0.014192388378063761,0.10379362479371826
661,0.12518315871237085,0.22190306644494062,-0.001339008548265519,0.15063295459070247,0.10890975002002147,0.09421254977347025,0.1080539995195591,0.050332475510583646
662,0.4755429949761467,0.4069094366167354,0.34114938273621154,0.3785213735588213,0.0439885077538748,0.10346725023518585,0.08087292312054235,0.050693092928427594
663,0.07684641939971237,0.010608247878929278,0.21187411912821108,0.36007300051793534,0.10660251573166861,0.06118840535525098,0.08936194006297829,0.06729418332774195
664,-0.05302166141894843,-0.03032173992795728,-0.06550421921357108,0.11068268938555648,0.06890490568511565,0.0790140155245219,0.06980848556260275,0.025895921999521832
665,-0.050946855181640494,-0.02229485577785545,-0.07218038588462683,0.10085969059763666,0.060945874364448274,0.09301976157986087,0.03187794545591342,0.03708925559649301
666,0.07350872570563921,0.25785520571771225,-0.030754768775163865,0.12499530805123649,0.09653231024367927,0.10263468678047301,0.12964370416605175,0.09602719353670484
667,0.07392831322396909,-0.05262315860490713,0.14267187301513828,0.2712952451979067,0.09527080990821996,0.03401147157020132,0.11975199169698901,0.10576945806179577
668,-0.09958188623649739,-0.09574642955536988,-0.2719333711606725,-0.04241485579584375,0.0813548833064862,0.09655523667047006,0.08475742472877104,0.03092947299709753
669,-0.1505255550348265,-0.007442819163484216,-0.27090570445752965,-0.04254428994287601,0.0328563975715707,0.11720268776587489,0.025416739138421532,0.11956591295389682
670,0.08277958752062692,0.36660273779898755,0.035061212365901595,0.18351954511556856,0.11598356663682752,0.062185562465828355,0.07558146074124922,0.06449018171756618
671,0.3794698363006561,0.08687266238142266,0.3289440248777281,0.3983072218739103,0.031824081093796044,0.10419785734353733,0.08776007975027417,0.06952333106241591
672,-0.04270994988117005,-0.11391927790207046,-0.08127125749560282,0.08012875446352236,0.07271830623891358,0.07427331655909439,0.09390142784800855,0.08583443458237569
673,-0.13778646443281328,-0.1109038274448233,-0.15043414154862245,0.033567332790261195,0.04820223506244996,0.07694592170936107,0.0543955724837397,0.09875263567068511
674,-0.12938089699511973,-0.03290311261457446,-0.14120641194576178,0.041579724838029464,0.03674958512242252,0.12434152980038485,0.04792362141960754,0.09665383876572166
675,0.035393611524532353,0.07048794834471861,0.12357582479697737,0.25507572074798623,0.05001636377168418,0.04778030394610663,0.045410553575788944,0.10893170937821692
676,-0.016909171574563064,-0.27257706459785525,-0.12128123865453988,0.04722119087885179,0.1188223156254488,0.10374028995023894,0.03687754348898557,0.07486494210787739
677,0.014258871767057424,-0.25053927122482916,0.6686491736003394,0.39001367619992455,0.11735635522581822,0.10149259043447803,0.10937517747236679,0.08338084784573377
678,-0.12816158154266794,0.02941555770780896,-0.10207142639750605,0.05889761939703625,0.14044266295215088,0.06932500966035231,0.031396579585986725,0.06898458805702695
679,0.11229421079251889,0.35717844648062613,0.2708369749700118,0.35398192242196325,0.044570415581555084,0.06253305848046758,0.07414452985670432,0.12011946221638824
680,0.31980015953260843,-0.0374805211892964,0.07021358901426034,0.20242103706672665,0.04455074159536112,0.08994899998573264,0.09605942196526339,0.05112873441106409
681,-0.07774474955266758,-0.12546173266255445,-0.14034000633318094,0.02774176389334676,0.05987029051189992,0.11627637455066292,0.06443647912353559,0.10562436939981319
682,-0.11098357434285527,-0.10467039681820067,-0.12451433405771378,0.0399719744418513,0.04130506386054348,0.0748892124590512,0.10713922855297887,0.07097496077546495
683,-0.08707486564128858,0.07073054534915774,-0.025935857274168306,0.09488080099179996,0.04087821226149409,0.0852886933329199,0.11628044702302627,0.05384843778831072
684,0.20672152040813596,0.021165943400833387,0.05041003507426678,0.23072874148182843,0.03509114494491824,0.13061203353381132,0.07357103249995349,0.05843024385713895
685,-0.03846242304963765,0.2097622298479822,-0.07527730190610055,-0.05957213510469239,0.06799966889024946,0.06340925987641166,0.10054709980609179,0.06795413904365538
686,0.8805786968129549,-0.06530650306660801,-0.10696182026625711,-0.05488787173036852,0.053335351818379735,0.13227877719481954,0.031521585480464125,0.06194108691483255
687,-0.0038014313812507194,0.18309881514237547,0.14323839896251134,0.19814886305906376,0.09802123909928792,0.03718739773919043,0.108976820618582,0.06877861659555275
688,0.37417375322840074,0.390870783948021,0.3495071748396589,0.4670013672415535,0.044449481341027657,0.03101120925163762,0.051183626612860016,0.04384868363530696
689,0.2006878204337358,0.0019796129333030654,-0.031173348184594496,0.16726907144847492,0.10962733800846738,0.04573406859457253,0.049555836920566795,0.06715021385269121
690,-0.024722635736211807,-0.030818046602240468,-0.054408009507296295,0.10116138367835636,0.08614819814884338,0.022869562921583233,0.09759829473356002,0.06760396041266599
691,-0.009848427118925751,-0.006653268748130048,-0.02954545927182134,0.11795501921087237,0.04741896390877974,0.11947179422834464,0.054924554145433624,0.1163566420133101
692,0.07765107908142188,0.2669357403961763,0.27088449401625736,0.26290609823657174,0.08782104791654853,0.12049015689943617,0.11516154627575356,0.11938990705992508
693,0.177586481107457,0.03729008202525985,-0.01112072235089595,0.19769079665725697,0.10112304810526747,0.08779663640853427,0.05789098316309004,0.07498055075056287
694,-0.06650430560811738,1.2000000000000002,0.29418924149392833,0.5666736994602661,0.10335723113021211,0.10303442550303883,0.12025762088259596,0.06867426152610062
695,-0.03673770113439606,0.06268279285146905,0.03137511881343796,0.14597123996114747,0.09046631882982133,0.07741096558950356,0.027721417893057196,0.08624284768888685
696,0.20887988082228026,0.39768437841500526,0.41296836989960883,0.3551412905166197,0.09270362550655575,0.035220203421264286,0.09494705339728783,0.05814699482921836
697,0.4534078923384187,0.3140330482527982,0.2007814654387604,0.42628854226132407,0.10759931228328695,0.11232005031038844,0.14003299835352295,0.07275800206731918
698,0.04043978362424122,0.02219963946393999,-0.03204353131500687,0.14327044731739225,0.04386149220492286,0.09843321985516008,0.09132698552081675,0.07134757095494801
699,-0.010203652267941177,0.018085035013329698,-0.028338137399810226,0.1273504810901075,0.06469456934436647,0.15511840923694717,0.09048355584271357,0.04300359270767428
700,0.00040108475817945966,0.05441362636852154,0.024589021470720673,0.1403348899900546,0.09764315859729536,0.11974396833520862,0.07358800069871185,0.09104919698800823
701,0.27346504070262656,0.2644780173962139,0.2026905250497223,0.3612944477052238,0.10348113284839691,0.10552615280629604,0.06039838311095728,0.10079033284887992
702,0.005783420959649566,-0.1288490769191255,-0.19617828401917178,-0.19302809702497792,0.08502959690820869,0.04712615015159005,0.0881879201164358,0.13370306436541904
703,0.8831865236474604,-0.24246308631922958,-0.27034250185478303,0.8780728274608441,0.034751195186262754,0.04612882877494068,0.09993405376861927,0.11184028759875984
704,-0.025167888709748787,0.10861842792884269,0.06310099678456538,0.7676841885186553,0.05751767653378646,0.020221745770647653,0.055626925009884205,0.041481891398340416
705,0.3245478867138121,0.4362521964443994,0.41158897217599966,0.9980041201512605,0.1004833509278326,0.11736722307764563,0.07280163008892762,0.09044523220708019
706,0.20580610837643898,0.035178430359650126,0.01718591673066866,0.6725394523952505,0.10924499012875276,0.11091246210711958,0.10335171049427648,0.10975211843949949
707,-0.09302345745903129,-0.06362699991340559,-0.10812380167056246,0.5176024897643938,0.03135441467442392,0.05015413073496377,0.022172929420800767,0.09062401909393066
708,-0.102657835744483,-0.06165389868534277,-0.1056686005907631,0.4770401914448078,0.1059122815799647,0.038574520614397034,0.06516041799539886,0.05304361720211192
709,-0.07806360558191833,0.1471558779722627,0.03177881271979521,0.573934734606954,0.04934877378932041,0.06708937341956989,0.07443659162370388,0.09499028104048154
710,0.18559845267095865,-0.03282485371238747,-0.003035430199068545,0.4343885050778947,0.06163986965064904,0.12535577962361233,0.09948516825478636,0.08252978837997349
711,-0.1661334395917896,1.0743122085790624,0.04112505215620166,1.2000000000000002,0.10713434103207367,0.033996444336763174,0.0860955346154666,0.10563032085583961
712,-0.363779818991325,-0.08201912437192466,-0.16042975775672805,0.31757172711738346,0.1054782798748589,0.03629864419624773,0.0956037355178138,0.13416222746664727
713,-0.05418335552725956,0.2222929581004538,0.07037617156481868,0.5315344209244433,0.10748256173968038,0.05941328277275116,0.12086730280640487,0.10324402021856108
714,0.3269043410206677,0.19983859157251038,0.28036118767399654,0.48937466368829596,0.08944336393896989,0.04612078336695739,0.11235442600789353,0.11109048686817742
715,-0.019050390673447493,-0.12394463246131948,-0.126247573208017,0.22111518133857588,0.06382832634331738,0.057451753361349306,0.1142974539975178,0.12435887011720155
716,-0.15914299511595484,-0.13013762563666914,-0.17083692528988595,0.19911586077995902,0.059984334387481145,0.07068986583400094,0.07406091770291387,0.06898251519092452
717,-0.14592241270491646,-0.10071914600531245,-0.15558981956491802,0.2102919055378637,0.11348976337466968,0.10589735179513976,0.08776524025828973,0.07448944863719645
718,0.012425650848327807,0.17020519523488542,0.11468558147270624,0.38684170326035805,0.07740312493470199,0.03975015641615534,0.10616698195097563,0.12148796980683582
719,-0.04042813680009322,-0.16534878426835053,-0.11892308850801481,0.09533784194272688,0.11107189678234121,0.04788940646207623,0.051554800046412746,0.043995911325793655
