,ecg1,ecg2,emg1
0,0,0.700918336,0.097348664
1,0,0.403657878,0.036969956
2,0,0.491038761,0.050523453
3,0,0.47270764,0.062077257
4,0,0.400494794,0.129115525
5,0,0.402852648,0.11850322
6,0,0.416801123,0.046619053
7,0,0.473164604,0.060380037
8,0,0.37470743,0.066255322
9,0,0.352462377,0.138981009
10,0,0.446892548,0.054131171
11,0,0.53740435,0.062192884
12,0,0.438641709,0.089050842
13,0,0.415668934,0.080542436
14,0,0.420402861,0.098725676
15,0,0.472007551,0.095326581
16,0,0.438770886,0.043388438
17,0,0.668639085,0.129549496
18,0,0.42683626,0.047714023
19,0,0.501285446,0.094293658
20,0,0.508727133,0.127985414
21,0,0.418633051,0.110199482
22,0,0.414160583,0.095461059
23,0,0.418669403,0.067099309
24,0,0.487542972,0.119382325
25,0,0.400564403,0.090682409
26,0,0.345101493,0.07730176
27,0,0.425224712,0.068564525
28,0,0.517376828,0.045241617
29,0,0.421896014,0.085624691
30,0,0.39107548,0.102969514
31,0,0.392387202,0.116188741
32,0,0.444369167,0.027045008
33,0,0.400896634,0.062137998
34,0,0.686733866,0.089846058
35,0,0.394897476,0.065024143
36,0,0.482930719,0.119312239
37,0,0.449829066,0.072396221
38,0,0.385868536,0.100704348
39,0,0.388448722,0.018434092
40,0,0.408918976,0.054627305
41,0,0.435234829,0.033415362
42,0,0.382000296,0.106877599
43,0,0.394012036,0.086811071
44,0,0.457427008,0.092850418
45,0,0.514017956,0.123668693
46,0,0.414361206,0.09525594
47,0,0.407054355,0.090941794
48,0,0.41367925,0.060196289
49,0,0.489856889,0.115322817
50,0,0.420382755,0.078249531
51,0,0.539467145,0.103512563
52,0,0.427257565,0.097234931
53,0,0.524094959,0.07658616
54,0,0.484923488,0.060921635
55,0,0.416947189,0.032814503
56,0,0.418123445,0.088533666
57,0,0.428303889,0.063393751
58,0,0.492982853,0.089185984
59,0,0.403949864,0.047419672
60,0,0.350109371,0.043550149
61,0,0.437499781,0.11028517
62,0,0.535381356,0.121003447
63,0,0.453512641,0.130163751
64,0,0.405510454,0.050739823
65,0,0.405513247,0.100001879
66,0,0.424536514,0.102851419
67,0,0.452833077,0.04050181
68,0,0.353662905,0.117838524
69,0,0.360516531,0.085173413
70,0,0.43271327,0.093715008
71,0,0.509856802,0.081105272
72,0,0.404031221,0.082677787
73,0,0.383801762,0.102889615
74,0,0.386287123,0.076246178
75,0,0.445201652,0.107835689
76,0.417383702,0.398194468,0.07000963
77,0.454362587,0.688071699,0.109440888
78,0.388239355,0.392853921,0.056734472
79,0.459649297,0.47604676,0.033823338
80,0.501557396,0.467395791,0.044841187
81,0.395474234,0.390042521,0.031118735
82,0.390820289,0.391315282,0.093915765
83,0.398862031,0.402379465,0.084225649
84,0.484925651,0.468585816,0.088069482
85,0.399433515,0.377298918,0.030269206
86,0.376071676,0.331968838,0.079854147
87,0.428494791,0.433209396,0.039523945
88,0.541286207,0.531193356,0.070380109
89,0.457865959,0.440014722,0.078218084
90,0.412221076,0.409492857,0.027009213
91,0.417511897,0.414803058,0.062936699
92,0.452063605,0.453870405,0.062070177
93,0.461383169,0.448435013,0.100793828
94,0.444410684,0.482276819,0.056619787
95,0.417193861,0.418521996,0.061112235
96,0.484759902,0.479802542,0.105631183
97,0.547072757,0.532937296,0.06216879
98,0.431580506,0.428247473,0.051820771
99,0.417884056,0.416333151,0.038907735
100,0.420841867,0.41906955,0.05469032
101,0.496660977,0.486896779,0.081273122
102,0.423661912,0.422759472,0.107308039
103,0.723195796,0.71812075,0.078971254
104,0.423651841,0.424779662,0.080781424
105,0.520632118,0.50926738,0.117916751
106,0.48219621,0.480373496,0.119866804
107,0.402079257,0.405758837,0.029407731
108,0.399827282,0.403150154,0.095272355
109,0.410748505,0.412168046,0.031643366
110,0.46390084,0.461193662,0.085849099
111,0.349381991,0.358571367,0.134217371
112,0.343915273,0.351869176,0.085396224
113,0.43178577,0.431344113,0.079599247
114,0.514120568,0.501687903,0.045440446
115,0.398053092,0.398245162,0.124515782
116,0.382177534,0.385650679,0.040698063
117,0.386238348,0.38977486,0.105516485
118,0.46649289,0.463443126,0.063889804
119,0.391109711,0.389976212,0.04426902
120,0.50283569,0.383774203,0.104223325
121,0.40771691,0.412882724,0.063547806
122,0.518318576,0.512255869,0.045815879
123,0.444007588,0.428285104,0.099482969
124,0.395527704,0.397322167,0.037517408
125,0.401105286,0.402908853,0.094934233
126,0.440726548,0.455819293,0.130192004
127,0.437701465,0.422446288,0.035386863
128,0.550743267,0.708270432,0.032082543
129,0.4062174,0.41201214,0.088927758
130,0.483641658,0.499082605,0.082960969
131,0.520135584,0.486690796,0.080796838
132,0.416515141,0.412642525,0.09889427
133,0.412438311,0.414241604,0.054691298
134,0.419639915,0.425626138,0.033882585
135,0.505632882,0.486741201,0.070524051
136,0.419272448,0.39264273,0.10411025
137,0.462306818,0.352059111,0.041033867
138,0.432123383,0.449708746,0.111995029
139,0.540954931,0.542914544,0.105462713
140,0.475974414,0.446213991,0.091474624
141,0.40983795,0.413054593,0.10969263
142,0.409903276,0.414268626,0.050385162
143,0.424186093,0.450012611,0.081119582
144,0.476052483,0.439821267,0.078998403
145,0.362716361,0.46913829,0.120809662
146,0.213112303,0.40443379,0.082607514
147,0.328245255,0.464177514,0.054357578
148,0.437045683,0.507303157,0.112511467
149,0.333581308,0.403376449,0.079597688
150,0.308534138,0.392328979,0.047021676
151,0.317233596,0.394258818,0.114918324
152,0.371238896,0.466481441,0.058908387
153,0.35123136,0.394272748,0.058807398
154,0.51371042,0.586212922,0.059824496
155,0.34055518,0.398728025,0.056181401
156,0.42136241,0.492688049,0.070233228
157,0.452228632,0.446878984,0.045038505
158,0.351695389,0.385478131,0.092849595
159,0.351194057,0.387843434,0.051612208
160,0.361704198,0.405213143,0.077278155
161,0.446742471,0.446682064,0.034470162
162,0.360336279,0.351510146,0.082550961
163,0.343772345,0.35835637,0.040115759
164,0.392957831,0.437836323,0.130785183
165,0.50875849,0.522211113,0.052347003
166,0.433238661,0.421232698,0.107514315
167,0.38455785,0.402884464,0.058237631
168,0.392078283,0.409159828,0.118002155
169,0.421001812,0.466025527,0.108245009
170,0.453348937,0.429668785,0.096841931
171,0.363720394,0.678004296,0.05760627
172,0.375193063,0.416903904,0.045871944
173,0.455342247,0.490758584,0.110590082
174,0.54850899,0.51736251,0.097256736
175,0.434690228,0.421414625,0.072601361
176,0.410180733,0.415336486,0.05635561
177,0.414650156,0.420060536,0.070926414
178,0.465946293,0.493811525,0.063818449
179,0.442278507,0.423867857,0.115519648
180,0.530886416,0.699077025,0.092034844
181,0.413029426,0.422627458,0.037565397
182,0.480859827,0.508305574,0.106589492
183,0.52990141,0.489802892,0.086248352
184,0.413443926,0.408034394,0.027987971
185,0.400459727,0.404286904,0.120042276
186,0.402334501,0.408548213,0.072510937
187,0.479544818,0.48068684,0.082625339
188,0.403208775,0.39354316,0.087141546
189,0.700159046,0.390474942,0.061971063
190,0.40896499,0.410029159,0.078184699
191,0.508175067,0.506690939,0.09913161
192,0.459858221,0.428674288,0.083028175
193,0.388131631,0.383981043,0.050905557
194,0.38814681,0.385740376,0.124056827
195,0.408218066,0.416836648,0.091327766
196,0.439378583,0.417801864,0.063653237
197,0.358961338,0.443494865,0.070200071
198,0.377086122,0.388394971,0.066972189
199,0.44843252,0.45462963,0.043747019
200,0.501920801,0.483800694,0.065832736
201,0.394829168,0.39330597,0.050506624
202,0.390303435,0.391601425,0.089440181
203,0.39882367,0.400327527,0.044605133
204,0.481319908,0.472007672,0.103510927
205,0.39042254,0.386351478,0.05564342
206,0.32683736,0.332964661,0.066043973
207,0.436824592,0.435056578,0.098779813
208,0.543953131,0.529715548,0.070200121
209,0.440692852,0.435052325,0.076436098
210,0.412571113,0.411791951,0.043937711
211,0.418417613,0.417225582,0.091955867
212,0.478584462,0.474147891,0.122977999
213,0.437885064,0.433407151,0.043432294
214,0.747256644,0.720680278,0.05537724
215,0.425475534,0.423719828,0.111469565
216,0.516012872,0.507326974,0.067645626
217,0.509629696,0.494647592,0.082335477
218,0.418993523,0.416918459,0.097111694
219,0.416925299,0.415921262,0.084359292
220,0.424938208,0.424752322,0.137058121
221,0.496762357,0.483174872,0.053398868
222,0.395316024,0.386255199,0.05124272
223,0.332098925,0.344648376,0.080907416
224,0.439038095,0.44002173,0.079243355
225,0.539959291,0.526557897,0.093987318
226,0.43068976,0.424072445,0.08536766
227,0.396780834,0.39794952,0.056678365
228,0.397460754,0.398941703,0.130157244
229,0.451719259,0.452938356,0.091734169
230,0.409137333,0.406152418,0.074086681
231,0.702444915,0.6952242,0.066518725
232,0.396300989,0.399015729,0.049866105
233,0.48581036,0.482927267,0.068506968
234,0.469000209,0.458410634,0.066366323
235,0.383960998,0.386839468,0.047211884
236,0.383743471,0.387143123,0.090061474
237,0.397502269,0.400813428,0.113061668
238,0.449862035,0.444166373,0.117560392
239,0.339973329,0.348284469,0.055219103
240,0.347660864,0.360970937,0.109286898
241,0.434338044,0.434806105,0.082289784
242,0.522635462,0.508990142,0.081009745
243,0.409452104,0.406901608,0.126008306
244,0.393044514,0.395017809,0.057154291
245,0.399747011,0.401466805,0.076576023
246,0.475000243,0.473832681,0.052521756
247,0.415163379,0.413399369,0.092889447
248,0.73147229,0.620766308,0.095938514
249,0.407523674,0.414031075,0.048526046
250,0.505672737,0.509403508,0.094518917
251,0.501583353,0.478299677,0.066193757
252,0.409705501,0.410469357,0.088971592
253,0.409361071,0.412997468,0.100212096
254,0.417624527,0.425399935,0.090038123
255,0.505878388,0.487403268,0.087035998
256,0.418630569,0.395425461,0.065955218
257,0.547785237,0.345204355,0.096910178
258,0.429999363,0.443990281,0.074842194
259,0.534781947,0.540348485,0.058611039
260,0.494209683,0.44995515,0.097518325
261,0.411268224,0.410995873,0.027258534
262,0.409337393,0.412168786,0.075078548
263,0.415855474,0.439544278,0.00094602
264,0.495646522,0.448593047,0.05993983
265,0.400622752,0.394208726,0.090157979
266,0.408536491,0.390139739,0.047845164
267,0.416165555,0.449646788,0.096667908
268,0.523774345,0.514278365,0.110797148
269,0.447326931,0.406669521,0.063657173
270,0.386792001,0.390212656,0.082872486
271,0.387071421,0.391738654,0.058118283
272,0.406596596,0.454538049,0.059680626
273,0.442760418,0.397963955,0.08614358
274,0.335915586,0.701409825,0.135768572
275,0.348733706,0.396671395,0.075778762
276,0.428806378,0.479851505,0.057011615
277,0.513234452,0.46751712,0.070789504
278,0.39769149,0.388696779,0.057278892
279,0.380609983,0.388538503,0.083298
280,0.386015629,0.397711179,0.088820345
281,0.459627685,0.466631088,0.081116828
282,0.399722411,0.379560177,0.067584164
283,0.737165607,0.324649651,0.080181041
284,0.410710461,0.422723726,0.111389098
285,0.509585757,0.522781082,0.03848155
286,0.491741984,0.437040967,0.051582035
287,0.408243141,0.402852957,0.060625112
288,0.410209215,0.408461502,0.075519631
289,0.422674777,0.444199512,0.109878527
290,0.497847181,0.447203358,0.080647035
291,0.398995617,0.446677618,0.101814061
292,0.341421756,0.41199812,0.078361708
293,0.450482126,0.474228794,0.083715802
294,0.559084724,0.531102612,0.080319458
295,0.460248131,0.428262293,0.074066439
296,0.420593011,0.417679088,0.034400241
297,0.423681444,0.421721558,0.086657157
298,0.461833092,0.491263573,0.115672182
299,0.456734963,0.42690476,0.115261068
300,0.506614277,0.703059843,0.094258715
301,0.441406332,0.428120562,0.078718194
302,0.508549095,0.515173098,0.103117828
303,0.542705502,0.484000155,0.085066909
304,0.431228897,0.410430684,0.077020408
305,0.420951024,0.408275492,0.095621071
306,0.422563279,0.417643732,0.060683142
307,0.499866922,0.466813939,0.109118079
308,0.403953025,0.365226702,0.120756094
309,0.340974832,0.343828668,0.065552303
310,0.429876232,0.431001048,0.092866124
311,0.528975053,0.511512948,0.089378585
312,0.419277977,0.406977632,0.068984571
313,0.391218238,0.386722631,0.064988542
314,0.392957782,0.389051277,0.089986252
315,0.464546507,0.453153112,0.100321311
316,0.396276893,0.39509666,0.070315548
317,0.539720435,0.644723149,0.069845032
318,0.400888504,0.395710708,0.091520244
319,0.509775408,0.488589107,0.088902056
320,0.435088914,0.450813253,0.109584399
321,0.387334511,0.388350468,0.050568378
322,0.392551526,0.391717545,0.045765144
323,0.436074725,0.410110759,0.034056554
324,0.422497215,0.450917082,0.063746782
325,0.636125438,0.359174766,0.107390217
326,0.40612512,0.373151213,0.124533235
327,0.490931176,0.447930516,0.111951715
328,0.507698697,0.526076909,0.090851199
329,0.411611139,0.424788383,0.046125585
330,0.41104807,0.410602487,0.067376986
331,0.420914295,0.416405022,0.108999704
332,0.50336132,0.481971833,0.034268983
333,0.411294916,0.429245519,0.061358319
334,0.35410272,0.726290195,0.065288211
335,0.44623538,0.428248096,0.053461496
336,0.55626508,0.51490908,0.057530831
337,0.463787385,0.495608783,0.063724765
338,0.417661224,0.419751849,0.073339143
339,0.419866524,0.418691418,0.106539507
340,0.451111376,0.427626846,0.120935759
341,0.459192471,0.485440193,0.080525213
342,0.417491501,0.388667094,0.09192123
343,0.403241187,0.343878635,0.071549304
344,0.468273565,0.43990554,0.132397659
345,0.527612608,0.526260266,0.068439674
346,0.410772187,0.423757075,0.052049759
347,0.395886158,0.398151693,0.05025027
348,0.397733727,0.399093831,0.059321622
349,0.475737462,0.454581847,0.076923729
350,0.397275936,0.405224254,0.095353833
351,0.62062331,0.694197595,0.099010327
352,0.398414837,0.397553326,0.095570406
353,0.50117645,0.483537076,0.053941211
354,0.454297263,0.456193752,0.070472123
355,0.380817107,0.385164067,0.069446185
356,0.381693801,0.38552348,0.12052975
357,0.396577424,0.398953461,0.109887874
358,0.452681913,0.445388472,0.041854503
359,0.341227275,0.347219422,0.057979895
360,0.322496673,0.350306798,0.085088737
361,0.423794693,0.430663676,0.099343892
362,0.528929952,0.513965091,0.046195064
363,0.423030987,0.412573806,0.07502605
364,0.390440389,0.395097484,0.043213255
365,0.396884103,0.401179881,0.101370469
366,0.437132529,0.462292826,0.087510813
367,0.444149076,0.419123159,0.08766508
368,0.397849136,0.709729366,0.133329015
369,0.390856949,0.413680867,0.139367187
370,0.462069287,0.4953463,0.056840457
371,0.550462625,0.500353401,0.068731246
372,0.435481915,0.415816225,0.067757803
373,0.412983526,0.414980719,0.084592295
374,0.418337827,0.422481053,0.071660889
375,0.468743566,0.499091706,0.120012434
376,0.451580682,0.418422461,0.101507887
377,0.481968054,0.420314281,0.084572706
378,0.418280309,0.435881743,0.146938102
379,0.485197968,0.533970608,0.100884543
380,0.54220842,0.461042098,0.088545779
381,0.425513153,0.412336387,0.073485645
382,0.4109591,0.413002589,0.042941761
383,0.412924854,0.435632701,0.097223374
384,0.487240538,0.451736783,0.084134866
385,0.415350128,0.387926085,0.033683641
386,0.739609537,0.393262287,0.053248668
387,0.41905513,0.45288294,0.045022939
388,0.514611226,0.508321773,0.049456742
389,0.476231991,0.403568574,0.075482179
390,0.39727496,0.390678893,0.110913179
391,0.395561036,0.392534898,0.107578666
392,0.40856562,0.464623143,0.040453004
393,0.453332792,0.393015001,0.096682076
394,0.339012074,0.530191584,0.01676815
395,0.354558716,0.396614804,0.049015109
396,0.434760501,0.492405188,0.112108232
397,0.51384299,0.442197148,0.100297965
398,0.398768877,0.382729363,0.105657429
399,0.384334945,0.385438284,0.040304365
400,0.389890688,0.402947813,0.105854363
401,0.470931557,0.446216846,0.105591188
402,0.398153743,0.347251992,0.092279258
403,0.575131867,0.345708958,0.095783731
404,0.407813246,0.431205474,0.113127883
405,0.517356694,0.521618964,0.0444971
406,0.462087697,0.423018533,0.084987797
407,0.400830574,0.399991442,0.106658962
408,0.406082898,0.406295563,0.073182008
409,0.431064533,0.452681976,0.034748068
410,0.465461513,0.436754656,0.023239363
411,0.378116004,0.528703912,0.09192134
412,0.401199475,0.41493894,0.058164992
413,0.474406998,0.480387308,0.060648304
414,0.544207928,0.524994532,0.097776526
415,0.430205885,0.424774102,0.041308005
416,0.418912772,0.416177854,0.034720687
417,0.42361445,0.420582112,0.053905676
418,0.504984368,0.492057613,0.100347901
419,0.424239813,0.424873002,0.056505341
420,0.518341638,0.690540466,0.048540888
421,0.434692465,0.427255805,0.077048953
422,0.54105859,0.516137772,0.061415708
423,0.457350624,0.479642131,0.041974989
424,0.407512523,0.409595301,0.086508058
425,0.407704597,0.407787951,0.080865312
426,0.448715033,0.418516706,0.091474595
427,0.425316312,0.463389861,0.030889425
428,0.64543396,0.36068446,0.09462284
429,0.401183193,0.356400617,0.108943722
430,0.483417066,0.433834335,0.09543577
431,0.478724326,0.5091785,0.10605384
432,0.38691922,0.403860882,0.066606934
433,0.384654368,0.385973622,0.083509834
434,0.395096877,0.388614927,0.066589737
435,0.452967455,0.454938673,0.041856623
436,0.341313535,0.393005745,0.115429657
437,0.340232127,0.611768705,0.122741075
438,0.428355161,0.393692201,0.084546166
439,0.51991748,0.488226518,0.100490482
440,0.405957165,0.447791811,0.093500888
441,0.385377748,0.386176595,0.103140614
442,0.391362184,0.389843754,0.027241058
443,0.458580835,0.407636433,0.10667186
444,0.410950561,0.4518157,0.098054674
445,0.727541456,0.356617172,0.038110052
446,0.3994027,0.364576361,0.095513378
447,0.488974947,0.444089189,0.071207701
448,0.501359204,0.526795458,0.111100557
449,0.405548711,0.42597194,0.041096241
450,0.40489023,0.409594564,0.069408531
451,0.413805186,0.415417992,0.031730152
452,0.502329556,0.476081371,0.099863575
453,0.417565322,0.431014077,0.068372957
454,0.506331618,0.722058858,0.076675709
455,0.434365691,0.427428875,0.093931374
456,0.543295547,0.511299741,0.029616861
457,0.484017528,0.498909354,0.064402327
458,0.416406427,0.420212198,0.070938103
459,0.417364051,0.418818564,0.101034505
460,0.432230327,0.427068538,0.054353643
461,0.485453678,0.486249735,0.060840906
462,0.372813047,0.389527633,0.132206663
463,0.342207685,0.346136841,0.068664937
464,0.443648475,0.441480688,0.080152041
465,0.541109287,0.526519116,0.048933711
466,0.42772817,0.423192655,0.097816342
467,0.395058404,0.399128338,0.108204374
468,0.395871956,0.399961684,0.049615247
469,0.444730048,0.459560748,0.116597738
470,0.414731856,0.403749239,0.049441314
471,0.580866407,0.667799712,0.054309349
472,0.385643345,0.396514833,0.047537294
473,0.459154554,0.486215668,0.066937285
474,0.492284557,0.448822535,0.051345535
475,0.383901883,0.38301986,0.038790929
476,0.376775847,0.384457,0.092761772
477,0.381999854,0.40014126,0.095497257
478,0.467723376,0.438979646,0.107790713
479,0.386687675,0.346258719,0.080362774
480,0.559588398,0.35996526,0.05779259
481,0.397789151,0.432690513,0.039707964
482,0.505748447,0.511978654,0.038978287
483,0.461652784,0.409732557,0.104894712
484,0.390723151,0.394038148,0.095735141
485,0.394848365,0.400267113,0.08800033
486,0.410725754,0.462865515,0.050689395
487,0.479131027,0.417980551,0.093954742
488,0.377420953,0.711184249,0.069020794
489,0.328181977,0.413908378,0.080481661
490,0.44204871,0.495901584,0.071791168
491,0.549758691,0.50240464,0.064617591
492,0.446396121,0.416245807,0.101054584
493,0.414183405,0.414989928,0.082557642
494,0.419192177,0.422278728,0.089597589
495,0.468147418,0.499936379,0.081073624
496,0.446890009,0.420287907,0.037691137
497,0.593434051,0.451662987,0.069653201
498,0.424993255,0.435480972,0.070284936
499,0.502354146,0.533416937,0.093344843
500,0.521610503,0.466804557,0.09133748
501,0.418674357,0.413155385,0.028275804
502,0.413163727,0.413488235,0.032192581
503,0.417904847,0.432393286,0.062360645
504,0.493661229,0.458069164,0.086199091
505,0.393157318,0.366975716,0.113837982
506,0.328381031,0.380837426,0.103405231
507,0.430175605,0.444651535,0.023475718
508,0.532155462,0.511666127,0.062521705
509,0.424393329,0.405303249,0.112962959
510,0.390160744,0.388808711,0.077325942
511,0.391277231,0.390820346,0.072615701
512,0.445611502,0.457216307,0.066099618
513,0.403941063,0.394375052,0.118426669
514,0.707869159,0.645739623,0.063976599
515,0.387892721,0.39220538,0.068710794
516,0.478831594,0.482840679,0.103617354
517,0.46816403,0.452080576,0.113626414
518,0.38150843,0.382689872,0.110205563
519,0.382210986,0.384478218,0.069024997
520,0.394467032,0.397011711,0.05323514
521,0.462472572,0.455404969,0.046643581
522,0.35689184,0.360316531,0.076951973
523,0.324280028,0.330218051,0.080948706
524,0.432068006,0.426714254,0.106314027
525,0.53302194,0.521538131,0.072236155
526,0.424189831,0.42639848,0.078227171
527,0.401159259,0.400624323,0.13096005
528,0.407974944,0.406743237,0.117169565
529,0.472919238,0.452901385,0.084594902
530,0.428329071,0.436311326,0.056278302
531,0.747145214,0.554230401,0.101053582
532,0.42353168,0.422883582,0.131254195
533,0.516424035,0.491247934,0.051916288
534,0.508296345,0.52232362,0.051600345
535,0.420379055,0.426604935,0.032561811
536,0.419853536,0.421103274,0.064174111
537,0.429888057,0.425961426,0.052468208
538,0.499974434,0.501673539,0.076362159
539,0.395522176,0.423781371,0.09431869
540,0.340748696,0.462398139,0.083832839
541,0.44968802,0.433441295,0.114735648
542,0.552071247,0.529659378,0.079948006
543,0.443622324,0.455851088,0.08271813
544,0.407143484,0.408050141,0.08640082
545,0.407666942,0.408014848,0.095482245
546,0.452815157,0.435853208,0.060602827
547,0.427142896,0.435283368,0.066633569
548,0.582119706,0.462306142,0.140276949
549,0.394738701,0.396009028,0.102057196
550,0.467823002,0.458434763,0.117879202
551,0.498112947,0.490484283,0.060314213
552,0.389052535,0.39283381,0.124149204
553,0.380978923,0.385953431,0.0230886
554,0.38542144,0.390077796,0.089717895
555,0.469767322,0.464382303,0.028875923
556,0.384368037,0.384190345,0.071023393
557,0.474707791,0.357435021,0.055149615
558,0.396330012,0.408960695,0.054517204
559,0.506325933,0.508682452,0.068679331
560,0.442838493,0.431976955,0.050359878
561,0.382925926,0.389840013,0.054721892
562,0.387599259,0.394310506,0.030216549
563,0.410971507,0.42445374,0.063175689
564,0.451822973,0.436897508,0.08737534
565,0.344267998,0.405341461,0.0566747
566,0.370127242,0.397083812,0.104858678
567,0.453042024,0.460053288,0.052452072
568,0.540520039,0.520958947,0.103615384
569,0.426607706,0.420592985,0.123876529
570,0.410286047,0.411042188,0.101174736
571,0.416791309,0.41716033,0.049699714
572,0.489668109,0.488420659,0.056171107
573,0.431859138,0.427391913,0.042788183
574,0.760843724,0.701222388,0.075887842
575,0.426807419,0.432162765,0.119766328
576,0.521925472,0.522409601,0.110746804
577,0.505939738,0.492063224,0.067130518
578,0.418549255,0.421066397,0.120596175
579,0.416966091,0.420509946,0.069252799
580,0.425301406,0.430760342,0.070033143
581,0.497280957,0.483560206,0.051326842
582,0.396549916,0.399396425,0.04402984
583,0.331720664,0.355846304,0.115852576
584,0.436552252,0.447359969,0.091639082
585,0.541336825,0.532931503,0.075702752
586,0.438178145,0.42961647,0.120090491
587,0.396130928,0.402794889,0.121197138
588,0.3966129,0.403110741,0.130329516
589,0.434807664,0.453682066,0.07203095
590,0.423584272,0.412608424,0.104391869
591,0.474270287,0.674491073,0.074762635
592,0.385442851,0.394967156,0.099934298
593,0.455810837,0.470821164,0.076244893
594,0.493989107,0.475090858,0.075724818
595,0.385778985,0.387252817,0.035786254
596,0.378936126,0.384457365,0.061918052
597,0.384584711,0.390654911,0.083410855
598,0.469795511,0.464967686,0.039879476
599,0.384574299,0.383224646,0.066187333
600,0.395359188,0.348851745,0.102237861
601,0.405554347,0.410141329,0.111024747
602,0.517402834,0.511239929,0.099486032
603,0.433310759,0.436268635,0.09195061
604,0.3908008,0.393860484,0.034373766
605,0.397008282,0.399220102,0.08722131
606,0.440463661,0.427800125,0.099818937
607,0.432601621,0.447250839,0.093750078
608,0.561427365,0.387830992,0.023771838
609,0.411908476,0.399530925,0.111661534
610,0.491849376,0.463926586,0.029318199
611,0.520034025,0.526073214,0.12009891
612,0.418921275,0.425504475,0.091020201
613,0.416175351,0.415769615,0.04640148
614,0.423962484,0.421107458,0.086453252
615,0.507778566,0.494147546,0.076084114
616,0.417882313,0.427882659,0.069270388
617,0.377853672,0.613360904,0.060743827
618,0.442847794,0.432781293,0.085674327
619,0.552645576,0.527473867,0.080077596
620,0.468101046,0.472849957,0.105445974
621,0.413293577,0.415356499,0.072945064
622,0.41388293,0.415474282,0.090671147
623,0.436254004,0.435639663,0.116790663
624,0.463308823,0.452694706,0.0384836
625,0.363742974,0.401244775,0.066355865
626,0.373771707,0.398304361,0.097601369
627,0.447777233,0.457342124,0.106273505
628,0.532148815,0.506313032,0.028306422
629,0.412942404,0.403350314,0.107406526
630,0.387910588,0.392514092,0.120340474
631,0.38955573,0.39456927,0.0871976
632,0.447693516,0.467854642,0.085607736
633,0.404111813,0.390548471,0.041089681
634,0.656479844,0.443691798,0.050095595
635,0.3919785,0.400175512,0.095881268
636,0.475144563,0.498328581,0.072281609
637,0.483383402,0.435750534,0.051314759
638,0.387014718,0.38298348,0.066386112
639,0.385054036,0.386184188,0.036658511
640,0.393576248,0.408311899,0.056355199
641,0.474930806,0.438398832,0.113918017
642,0.382141669,0.353486793,0.061286889
643,0.324140824,0.374003237,0.028802468
644,0.420698706,0.442482692,0.028549454
645,0.53142101,0.517354431,0.110718119
646,0.434975698,0.415625253,0.094713858
647,0.400820965,0.402529654,0.027348778
648,0.407292637,0.408964659,0.093051932
649,0.458003788,0.475945849,0.026867808
650,0.436908026,0.42314965,0.048316991
651,0.632922274,0.72084738,0.042671494
652,0.414880287,0.426750706,0.106709095
653,0.495582523,0.514663446,0.07305047
654,0.522149611,0.494927271,0.030138603
655,0.419905757,0.42105231,0.094383749
656,0.415534251,0.421502712,0.134543925
657,0.421617688,0.432610257,0.031948725
658,0.5064924,0.487058947,0.096989834
659,0.415766756,0.388259735,0.085541226
660,0.476634327,0.361989008,0.062731149
661,0.441492724,0.452076662,0.110383207
662,0.547429318,0.537538412,0.038715485
663,0.479707749,0.43454897,0.036411575
664,0.4118948,0.408336669,0.059790674
665,0.410401171,0.409057102,0.060708111
666,0.424156155,0.460122277,0.067226573
667,0.471569187,0.418531644,0.136372668
668,0.358189813,0.674716885,0.062153473
669,0.333210234,0.396222156,0.0639884
670,0.432019414,0.470207842,0.049079398
671,0.524792934,0.479775768,0.069706002
672,0.409315747,0.387787008,0.131998865
673,0.383764868,0.382829896,0.036955557
674,0.386109126,0.387354255,0.07179465
675,0.450107541,0.463494193,0.114837499
676,0.397417889,0.383558099,0.051763965
677,0.723423079,0.434556709,0.095670297
678,0.39964188,0.396764434,0.056589399
679,0.497699955,0.496273109,0.082331102
680,0.462663505,0.442003408,0.11828909
681,0.391907392,0.384950346,0.107840783
682,0.39522968,0.388976706,0.023857661
683,0.418477865,0.405495658,0.072806829
684,0.448355053,0.458425215,0.063494143
685,0.393983052,0.362098667,0.09876311
686,0.397242794,0.334712054,0.050904241
687,0.469371304,0.43356988,0.09260484
688,0.519640605,0.526662274,0.116646578
689,0.415197663,0.430328907,0.041034325
690,0.411397408,0.407204882,0.036021421
691,0.419884401,0.413017628,0.059210846
692,0.503151337,0.465022825,0.080309025
693,0.413314806,0.435114994,0.125703035
694,0.350624001,0.652825659,0.126652634
695,0.449371281,0.424560372,0.102648815
696,0.558909778,0.501718476,0.072417371
697,0.462839676,0.505068385,0.096540605
698,0.419273902,0.420301743,0.038192436
699,0.421337376,0.417774758,0.110553497
700,0.455689485,0.424567466,0.11141227
701,0.456054418,0.488789835,0.094721282
702,0.447880656,0.396576523,0.115389018
703,0.40617785,0.341379559,0.110104083
704,0.470016127,0.43854406,0.073141666
705,0.533490461,0.529104859,0.055058789
706,0.414546153,0.430261954,0.042804695
707,0.396625542,0.39911713,0.093399665
708,0.397825811,0.399672094,0.056776931
709,0.467761168,0.445675286,0.09297633
710,0.403829576,0.412720922,0.101773859
711,0.734302604,0.637033103,0.027243125
712,0.398101316,0.393781752,0.08635986
713,0.487680211,0.46707554,0.051888533
714,0.477871021,0.475879935,0.103821307
715,0.385719765,0.387043344,0.021398972
716,0.383680933,0.383897764,0.06949793
717,0.392500814,0.38990681,0.049911282
718,0.469070563,0.464550404,0.082160745
719,0.372057438,0.382884586,0.055386309
720,0.310102376,0.35067766,0.055137902
721,0.415733848,0.411642879,0.034911463
722,0.524199908,0.51159759,0.06752621
723,0.424030993,0.431308434,0.087656172
724,0.391995224,0.394803415,0.063655609
725,0.398499085,0.400349276,0.050166127
726,0.452521165,0.438190001,0.050433105
727,0.426468267,0.434667938,0.081511164
728,0.658219577,0.503818251,0.102929686
729,0.407179264,0.414378891,0.028437719
730,0.491624037,0.483890825,0.07801701
731,0.514293835,0.512393583,0.055298754
732,0.414190868,0.420814576,0.051617882
733,0.411639355,0.418540085,0.076996082
734,0.419507506,0.425824936,0.092274462
735,0.50548708,0.497794235,0.022284861
736,0.418729173,0.40793921,0.125740089
737,0.460331484,0.351934235,0.068294749
738,0.434072185,0.444731878,0.015300737
739,0.542137308,0.539298707,0.100443646
740,0.482899648,0.445673719,0.108185144
741,0.411094511,0.41309231,0.035530937
742,0.41044534,0.414483219,0.089242862
743,0.420896412,0.457940506,0.054990298
744,0.487061017,0.429114782,0.131490156
745,0.387487012,0.636831186,0.084769016
746,0.336225373,0.404054073,0.048801694
747,0.43628032,0.474839603,0.068471005
748,0.542108078,0.488002765,0.042846652
749,0.444196733,0.395162766,0.104467657
750,0.395458185,0.389263326,0.075954907
751,0.395445553,0.392830599,0.042026931
752,0.42330451,0.467174969,0.104447836
753,0.436802261,0.385857607,0.103900423
754,0.364873678,0.389554816,0.116752917
755,0.37578164,0.399042841,0.048749099
756,0.444532202,0.498239763,0.035479219
757,0.505055931,0.432323826,0.122139115
758,0.392545942,0.380860727,0.103766
759,0.383576093,0.384321298,0.113906832
760,0.389818818,0.404999595,0.076548992
761,0.474995488,0.441512395,0.121914314
762,0.393076105,0.354093382,0.056391299
763,0.426176901,0.3639876,0.093585173
764,0.41535699,0.439861914,0.062784843
765,0.527092862,0.521169348,0.107169249
766,0.441128774,0.419695333,0.109081168
767,0.401985214,0.403340674,0.1041157
768,0.408292602,0.409668902,0.087892823
769,0.460133341,0.470932923,0.081921553
770,0.433911907,0.42693277,0.124000304
771,0.707827858,0.716039078,0.104843374
772,0.418656453,0.423692328,0.132824046
773,0.510057402,0.506497103,0.086142266
774,0.50549941,0.502665219,0.037395936
775,0.417428019,0.420999536,0.042662921
776,0.417312148,0.419944241,0.059824805
777,0.428088334,0.42774918,0.04048303
778,0.494434138,0.496218159,0.058166379
779,0.394655934,0.407968522,0.026549868
780,0.360506188,0.348884669,0.111611173
781,0.463510921,0.440116999,0.090660419
782,0.561202848,0.535295247,0.09660449
783,0.447627156,0.446216643,0.084359323
784,0.414093005,0.406242171,0.101529022
785,0.414138834,0.407045386,0.110791548
786,0.463189284,0.436113761,0.057866425
787,0.429397829,0.435781603,0.035861239
788,0.623739641,0.424725322,0.033027542
789,0.405177863,0.390274213,0.039647777
790,0.480776515,0.448700092,0.092734499
791,0.497046318,0.5011241,0.109968013
792,0.393857483,0.396427504,0.027889868
793,0.387753582,0.384079289,0.096350705
794,0.392301356,0.387195874,0.074359694
795,0.473671151,0.457707844,0.112429528
796,0.383089659,0.39193748,0.110008786
797,0.344222337,0.641623632,0.086670702
798,0.408791655,0.396024475,0.074728635
799,0.518129593,0.488738568,0.037094706
800,0.424796235,0.452995176,0.120128039
801,0.386483449,0.388888658,0.109014148
802,0.391934873,0.392094943,0.049196784
803,0.440041679,0.4088485,0.076238342
804,0.421414492,0.455118948,0.070649153
805,0.617134028,0.358873175,0.089618945
806,0.403089353,0.368813005,0.120179507
807,0.48772323,0.447227442,0.123349332
808,0.505177097,0.523605488,0.110743025
809,0.409632185,0.423044724,0.100243853
810,0.409294143,0.410742606,0.065436405
811,0.419411178,0.416827725,0.096921717
812,0.500859158,0.487856445,0.038501566
813,0.40443019,0.42534517,0.036946727
814,0.346467234,0.621299163,0.106372107
815,0.445380494,0.430244327,0.074488745
816,0.555987267,0.525080789,0.0667412
817,0.464219602,0.478490571,0.108808475
818,0.416529403,0.417141362,0.10031329
819,0.418729607,0.418004295,0.04420035
820,0.446730611,0.434291327,0.029959869
821,0.4645591,0.467742986,0.062098323
822,0.382442918,0.367480318,0.063113666
823,0.388974131,0.387901893,0.058417922
824,0.458492228,0.455070926,0.096981074
825,0.541736855,0.526712696,0.100263561
826,0.422232311,0.419222319,0.080570886
827,0.396544209,0.400246652,0.075937283
828,0.397372769,0.401001292,0.11305726
829,0.45037134,0.462001016,0.10345354
830,0.415368156,0.405262812,0.077334714
831,0.569395544,0.699631809,0.081033099
832,0.394999783,0.399394148,0.071462933
833,0.467176848,0.483720981,0.04811412
834,0.501124935,0.462646863,0.106342232
835,0.391382244,0.387005188,0.121053763
836,0.383301391,0.386608917,0.132834975
837,0.387693297,0.396462179,0.049408251
838,0.473660104,0.455812176,0.079812935
839,0.391580596,0.360233691,0.119996248
840,0.542481198,0.323811511,0.094456365
841,0.406845385,0.422380445,0.068303258
842,0.515937221,0.51348695,0.049544084
843,0.454047666,0.415770232,0.101851196
844,0.395754271,0.394543424,0.056248523
845,0.400831326,0.40056128,0.075999988
846,0.428604835,0.458822556,0.03507056
847,0.454605902,0.419299855,0.058573658
848,0.392294565,0.702970617,0.104070928
849,0.403714893,0.411605229,0.055950491
850,0.475219747,0.495480602,0.068918643
851,0.537709181,0.493368196,0.071608286
852,0.426772861,0.41362212,0.088178773
853,0.417963449,0.414070475,0.067830449
854,0.424204545,0.423154611,0.059735838
855,0.508061747,0.493987044,0.079908777
856,0.426649728,0.405355465,0.105012426
857,0.50065428,0.352595203,0.087730438
858,0.435398946,0.440537343,0.100660378
859,0.543431803,0.538696062,0.116434239
860,0.472314824,0.455274722,0.076422452
861,0.412320351,0.411307435,0.128776768
862,0.41285938,0.412331801,0.074093997
863,0.43481492,0.436113211,0.082858709
864,0.45907453,0.452313389,0.113361552
865,0.373661391,0.378226868,0.056338888
866,0.383871481,0.384046914,0.088550251
867,0.45236319,0.446063384,0.03884097
868,0.523272909,0.514363309,0.105574359
869,0.405055147,0.406814357,0.109026167
870,0.387652385,0.388495591,0.050290273
871,0.389305211,0.390188381,0.094860225
872,0.463331034,0.450999055,0.060310794
873,0.393247346,0.398415769,0.04657573
874,0.686570059,0.689199745,0.105085036
875,0.39312992,0.393302159,0.113234767
876,0.49408068,0.476395832,0.114094536
877,0.455895764,0.462691554,0.097986635
878,0.381530178,0.386234829,0.076418806
879,0.383735451,0.386947871,0.047253477
880,0.400183731,0.397566486,0.097016262
881,0.454073592,0.458980992,0.043606505
882,0.336317271,0.364718222,0.085539286
883,0.349432347,0.331489738,0.08269826
884,0.44056506,0.430092016,0.050539049
885,0.531233748,0.520841579,0.070921568
886,0.419181282,0.423013265,0.039966389
887,0.402599667,0.402891247,0.091990075
888,0.409582305,0.409156149,0.115896109
889,0.484165417,0.468746469,0.091653102
890,0.423982687,0.425977241,0.046944718
891,0.730463424,0.717320309,0.078553657
892,0.424204588,0.418675657,0.043058889
893,0.525207003,0.504610124,0.084108726
894,0.49728143,0.493792347,0.102782637
895,0.417627776,0.416629711,0.126100751
896,0.418732208,0.41662328,0.122939652
897,0.431489248,0.425635419,0.058354609
898,0.493220407,0.490609302,0.105661362
899,0.383841961,0.399926614,0.060022437
900,0.348024698,0.344275092,0.095200641
901,0.451902077,0.441842534,0.105229865
902,0.551767374,0.535067331,0.086448163
903,0.440021825,0.440614937,0.066879466
904,0.405488985,0.405951264,0.082853355
905,0.406265114,0.406611955,0.022495125
906,0.451612829,0.443658703,0.104283809
907,0.427272713,0.427424078,0.11370502
908,0.54174178,0.523969028,0.053879526
909,0.396207911,0.406001438,0.068475011
910,0.465155145,0.469541647,0.037920331
911,0.505131198,0.493601857,0.103965828
912,0.392372267,0.397620989,0.070714281
913,0.382399217,0.391337002,0.108542666
914,0.385823222,0.395442332,0.029688489
915,0.468992692,0.467887917,0.09161087
916,0.387415106,0.38467473,0.108520426
917,0.582689675,0.337189728,0.126843771
918,0.398922461,0.410256799,0.082400238
919,0.505171139,0.508279768,0.110525875
920,0.454827889,0.420956315,0.082984426
921,0.386906195,0.389266456,0.08141391
922,0.390637265,0.394511391,0.055165471
923,0.410212475,0.440566318,0.03812175
924,0.46050755,0.418057801,0.045163244
925,0.353271905,0.63445597,0.123955024
926,0.35832385,0.403913813,0.090674607
927,0.449242224,0.481686712,0.03079956
928,0.539860927,0.495284763,0.080574459
929,0.427148213,0.409575377,0.100708294
930,0.410450493,0.409228106,0.092019454
931,0.416925489,0.417834026,0.083728707
932,0.490569433,0.493819038,0.026330683
933,0.429876059,0.412841064,0.09831765
934,0.738140421,0.377680085,0.068816573
935,0.430403871,0.440520553,0.08852645
936,0.530734722,0.540435198,0.076961419
937,0.495963922,0.466859916,0.108930768
938,0.418997364,0.417469497,0.071883004
939,0.418962239,0.419016731,0.099159328
940,0.432657335,0.438240076,0.063306862
941,0.482732068,0.469511574,0.088771313
942,0.370014121,0.371595879,0.108881507
943,0.366820937,0.371891679,0.103265399
944,0.453210797,0.446758994,0.088444103
945,0.5391622,0.527788269,0.151035528
946,0.421091856,0.421721456,0.130163363
947,0.397339514,0.396859644,0.087953902
948,0.398341717,0.397765257,0.027770682
949,0.465309616,0.446843155,0.096539956
950,0.403283365,0.411705075,0.097677305
951,0.721495903,0.605432666,0.07107292
952,0.394922859,0.394744035,0.067020658
953,0.490371596,0.466091647,0.087263716
954,0.463300829,0.479256972,0.051208295
955,0.381321458,0.388539816,0.11633428
956,0.381340428,0.384809327,0.093960834
957,0.393060177,0.391025682,0.103209857
958,0.45682662,0.465243362,0.118722159
959,0.343527369,0.382978553,0.067501228
960,0.321173827,0.344499187,0.092482216
961,0.427421038,0.411110914,0.100554318
962,0.527946888,0.511666096,0.088570159
963,0.41811576,0.431444552,0.057487905
964,0.394010251,0.394295341,0.066083947
965,0.400576479,0.399789783,0.04605657
966,0.463577746,0.435975793,0.096092881
967,0.422801992,0.436624821,0.079997636
968,0.723834262,0.47698484,0.091848294
969,0.417177023,0.410345111,0.09774719
970,0.508044657,0.474575914,0.091302173
971,0.510001481,0.52212489,0.125604639
972,0.418196743,0.423769625,0.098994193
973,0.417921197,0.416591266,0.089560471
974,0.427578478,0.422052204,0.088321989
975,0.506354952,0.496625324,0.05253174
976,0.409990989,0.429374488,0.099973312
977,0.347293252,0.616398929,0.059338009
978,0.448221678,0.429816626,0.082717473
979,0.556005518,0.523070734,0.104059296
980,0.457205321,0.479318187,0.116901081
981,0.413720612,0.413201438,0.095568037
982,0.414789665,0.412642227,0.10901195
983,0.450195956,0.42469762,0.095734665
984,0.44565034,0.470114968,0.106346035
985,0.460898517,0.366809194,0.051940718
986,0.401376851,0.354176438,0.109539332
987,0.466918142,0.43609269,0.051194153
988,0.519313031,0.514130638,0.10329914
989,0.402437609,0.40888483,0.082342594
990,0.388977639,0.389240311,0.076850837
991,0.39080494,0.39113135,0.096017257
992,0.46889681,0.455922063,0.093724739
993,0.392394935,0.394435917,0.066273329
994,0.656025066,0.616485084,0.081824994
995,0.392987392,0.396389302,0.052873839
996,0.494202544,0.49037671,0.046663685
997,0.459318082,0.439457968,0.079535295
998,0.381080717,0.384170835,0.099756968
999,0.382599194,0.387314951,0.092888944
1000,0.395448835,0.412927688,0.108457717
1001,0.465331464,0.428550883,0.028166417
1002,0.362274328,0.426337942,0.108087432
1003,0.313163344,0.395811922,0.084978182
1004,0.426646663,0.460157684,0.060649172
1005,0.534851469,0.504976184,0.078347719
1006,0.43280507,0.409679664,0.119940626
1007,0.400900947,0.405464645,0.105088644
1008,0.407496389,0.412860699,0.136020194
1009,0.455778437,0.490646279,0.039825737
1010,0.441173754,0.415310179,0.052746488
1011,0.560246376,0.41447805,0.049827513
1012,0.419834814,0.433316991,0.128852949
1013,0.497013217,0.533949323,0.097916218
1014,0.530414872,0.464948092,0.013915041
1015,0.424891946,0.416852196,0.077628266
1016,0.419477346,0.419780859,0.107267481
1017,0.425107432,0.443070527,0.116354373
1018,0.509123531,0.464743792,0.116953433
1019,0.419468222,0.386114782,0.107933397
1020,0.4396957,0.40263732,0.087165815
1021,0.434535081,0.46480777,0.029107827
1022,0.542304727,0.531462598,0.092729034
1023,0.460682916,0.424653423,0.132314245
1024,0.405620103,0.407258614,0.091054263
1025,0.405616598,0.408526436,0.126371563
1026,0.432805527,0.471262619,0.103859005
1027,0.442444176,0.411679276,0.086811705
1028,0.412392629,0.70044653,0.116557774
1029,0.391451853,0.405286739,0.118060282
1030,0.456989793,0.489712806,0.135516847
1031,0.510650295,0.466903055,0.086783623
1032,0.395812794,0.389635488,0.059397107
1033,0.384510539,0.387998769,0.115022465
1034,0.387545858,0.397018683,0.070449883
1035,0.470226031,0.456247998,0.087135832
1036,0.387861069,0.360065267,0.033348741
1037,0.479667067,0.317585424,0.128652404
1038,0.400244055,0.416935023,0.104082334
1039,0.510172946,0.511108515,0.094962561
1040,0.440605959,0.416073733,0.069821484
1041,0.385698535,0.387742527,0.114846571
1042,0.390625297,0.392866018,0.10344272
1043,0.419850862,0.43706209,0.078399497
1044,0.441477111,0.422705028,0.067381201
1045,0.394646751,0.533730963,0.064003335
1046,0.393972569,0.402072847,0.124908127
1047,0.465410447,0.468710811,0.111600994
1048,0.527187675,0.514290942,0.052613395
1049,0.417798898,0.415650598,0.104951669
1050,0.41029534,0.408863415,0.081984457
1051,0.417602143,0.415440183,0.078354711
1052,0.502596712,0.489186911,0.039665834
1053,0.425371824,0.425441513,0.057504925
1054,0.522888874,0.707491212,0.062337357
1055,0.435301801,0.427124798,0.043383789
1056,0.54509768,0.514191058,0.133337587
1057,0.47650039,0.499684799,0.050632662
1058,0.41756287,0.418723804,0.104732191
1059,0.419145798,0.416925309,0.030865365
1060,0.443008032,0.4228314,0.045628448
1061,0.464925622,0.49435212,0.108182701
1062,0.387750223,0.406285708,0.115084272
1063,0.401437393,0.376077849,0.037376127
1064,0.467777272,0.425190357,0.127126138
1065,0.532817056,0.522008217,0.08012563
1066,0.414655496,0.440327262,0.085187693
1067,0.398242095,0.395678826,0.061605092
1068,0.399756486,0.396035341,0.11175493
1069,0.476466485,0.424506869,0.065495059
1070,0.399267568,0.426556142,0.063990018
1071,0.62942578,0.435111868,0.107263357
1072,0.398427087,0.388988884,0.046385069
1073,0.500835067,0.450301324,0.102561556
1074,0.453276763,0.488567273,0.130671516
1075,0.380600786,0.390603864,0.117159412
1076,0.38172995,0.384261821,0.04960077
1077,0.397209453,0.38943308,0.081888961
1078,0.44992141,0.464943644,0.133447311
1079,0.330738951,0.386913248,0.081350335
1080,0.337138409,0.365066159,0.068896399
1081,0.430575994,0.413065447,0.064407274
1082,0.526232077,0.513265761,0.041164274
1083,0.414201493,0.433956642,0.117576698
1084,0.392837937,0.396732796,0.098575281
1085,0.399626242,0.402023477,0.073386518
1086,0.464470607,0.440226042,0.113179063
1087,0.421115332,0.435065285,0.058682736
1088,0.727138578,0.520427552,0.051874626
1089,0.415684654,0.413090025,0.077650637
1090,0.505542744,0.482263785,0.096210429
1091,0.511244206,0.514074168,0.061803776
1092,0.417871488,0.420933691,0.063819318
1093,0.417017905,0.417206735,0.031887025
1094,0.425801862,0.423835738,0.080260386
1095,0.508028532,0.499919522,0.06194069
1096,0.410774741,0.42127395,0.019571082
1097,0.368092372,0.412863597,0.079433601
1098,0.440903849,0.438398307,0.069761134
1099,0.550236375,0.536164866,0.061773107
1100,0.461169849,0.456208346,0.064462417
1101,0.411085649,0.413427305,0.045829485
1102,0.412178719,0.414364059,0.036153093
1103,0.440731191,0.447041401,0.038287408
1104,0.452281861,0.438369042,0.097995184
1105,0.394910654,0.514326658,0.09350648
1106,0.392125239,0.407919164,0.029879716
1107,0.457223531,0.473754894,0.02778684
1108,0.523409968,0.492094861,0.029386625
1109,0.404523235,0.398807762,0.136015406
1110,0.387759629,0.393137877,0.094747711
1111,0.389658079,0.397915707,0.066906294
1112,0.464221696,0.464952955,0.124159395
1113,0.394055524,0.374698606,0.099571285
1114,0.704651689,0.318939937,0.106658833
1115,0.39040058,0.416657848,0.081286868
1116,0.488334265,0.509439658,0.038648031
1117,0.462777194,0.41335489,0.087322769
1118,0.380840108,0.386179005,0.111404675
1119,0.382020763,0.390164593,0.090822134
1120,0.394142358,0.441526069,0.103700187
1121,0.465354324,0.408603575,0.125913752
1122,0.360337231,0.670900852,0.097389034
1123,0.315780278,0.399387075,0.088789602
1124,0.428926952,0.478576234,0.113059672
1125,0.536413555,0.489696289,0.066938763
1126,0.433488866,0.403417297,0.075302202
1127,0.402682756,0.403052314,0.088546241
1128,0.409078036,0.41188043,0.07398454
1129,0.460229649,0.489987106,0.08961506
1130,0.440080713,0.412022533,0.053427325
1131,0.596649595,0.409932077,0.052781524
1132,0.422152274,0.432057484,0.050793557
1133,0.500381786,0.532988769,0.103734515
1134,0.530586481,0.470402929,0.125872131
1135,0.425367174,0.416312444,0.029414659
1136,0.420467375,0.418828246,0.075881563
1137,0.426287018,0.435321251,0.084788291
1138,0.510111135,0.478766049,0.107041839
1139,0.420869675,0.379282224,0.106926387
1140,0.426277319,0.358892308,0.040571026
1141,0.436223341,0.448001399,0.056062783
1142,0.543687236,0.535839138,0.115955774
1143,0.459966448,0.434190998,0.043131204
1144,0.406179033,0.405078038,0.06556486
1145,0.406173354,0.405909357,0.058975947
1146,0.433731631,0.448267755,0.110795203
1147,0.442788732,0.424114981,0.109745956
1148,0.411426306,0.546403241,0.128438791
1149,0.389244468,0.399049513,0.071279324
1150,0.455314401,0.463784093,0.046824988
1151,0.508142434,0.488814431,0.104316009
1152,0.393661412,0.392763021,0.077063396
1153,0.382746256,0.38616341,0.044182626
1154,0.386378516,0.390015073,0.05601472
1155,0.469306258,0.465527217,0.095412257
1156,0.3854356,0.384801132,0.056821756
1157,0.455451904,0.405915452,0.098451848
1158,0.403466745,0.401449754,0.063393538
1159,0.513438582,0.501281655,0.09472019
1160,0.438599134,0.434423994,0.110466259
1161,0.386933723,0.386562192,0.088879436
1162,0.391760404,0.391113349,0.075200184
1163,0.425906118,0.416558848,0.106724362
1164,0.436650213,0.441324329,0.113205825
1165,0.438974357,0.37231975,0.098057978
1166,0.401587147,0.384430542,0.0896952
1167,0.473995506,0.451424995,0.045088662
1168,0.522291838,0.523742567,0.077356145
1169,0.416571535,0.422036061,0.108796256
1170,0.411823902,0.409566104,0.048858384
1171,0.419601827,0.415466476,0.096948772
1172,0.505579643,0.481517765,0.103596136
1173,0.420788212,0.429154577,0.125434782
1174,0.424879861,0.730314959,0.08314915
1175,0.441745936,0.428538604,0.063124372
1176,0.551894349,0.513325757,0.037785123
1177,0.468936308,0.500279296,0.068256935
1178,0.418441384,0.420765889,0.088907532
1179,0.420409266,0.419034607,0.10639345
1180,0.451584004,0.426320208,0.09776541
1181,0.456214541,0.490460752,0.033729725
1182,0.450740522,0.394276034,0.088475744
1183,0.411918851,0.339480403,0.048126398
1184,0.47829267,0.433838183,0.060919041
1185,0.526865295,0.524326121,0.097324858
1186,0.411635927,0.425778123,0.086643325
1187,0.399313233,0.396778111,0.073848998
1188,0.401015715,0.397724085,0.138929766
1189,0.481900424,0.449935558,0.036575407
1190,0.397139021,0.406275472,0.110235744
1191,0.516229688,0.691688354,0.106488048
1192,0.402915928,0.396925562,0.083485528
1193,0.508965441,0.482136168,0.048693481
1194,0.445608405,0.453419751,0.02722106
1195,0.380939832,0.384912993,0.052734119
1196,0.382599834,0.385743631,0.133711919
1197,0.40394873,0.401871517,0.055587393
1198,0.442529295,0.436825522,0.103313656
1199,0.339171293,0.355954247,0.108116346
1200,0.355455576,0.374386784,0.08791967
1201,0.435682816,0.440734059,0.088093569
1202,0.523393219,0.505223518,0.078387389
1203,0.409504682,0.404479941,0.067208921
1204,0.39194416,0.395571796,0.102398176
1205,0.39890682,0.402149239,0.094903537
1206,0.468694164,0.478041495,0.133778628
1207,0.418564466,0.41066682,0.121030859
1208,0.742601895,0.534477605,0.069342331
1209,0.41282101,0.421342144,0.088624802
1210,0.503602466,0.520591418,0.034613036
1211,0.50895715,0.473931082,0.088142432
1212,0.415108363,0.41395734,0.060194611
1213,0.41430206,0.417041381,0.074299132
1214,0.422769337,0.432562039,0.050683102
1215,0.507844224,0.48177054,0.094341609
1216,0.416391298,0.381892095,0.091457599
1217,0.412851886,0.363625809,0.138258717
1218,0.437586469,0.45412957,0.080593917
1219,0.547992818,0.543547617,0.120303438
1220,0.470402955,0.442843687,0.058386335
1221,0.412121952,0.413608316,0.043744855
1222,0.413014633,0.414909368,0.042461763
1223,0.432365381,0.456583237,0.121278988
1224,0.465807658,0.434600336,0.081151357
1225,0.358960539,0.539314651,0.022297882
1226,0.364816863,0.408165851,0.103343343
1227,0.444273534,0.472735463,0.118720064
1228,0.529173429,0.499716665,0.090213148
1229,0.410737289,0.401020909,0.03258811
1230,0.38735792,0.393152626,0.065854627
1231,0.388908041,0.395846301,0.122064886
1232,0.451792225,0.470193702,0.044117677
1233,0.399049381,0.391338246,0.080678913
1234,0.717297533,0.429388848,0.087709698
1235,0.389992012,0.404421416,0.078911859
1236,0.480294474,0.50227629,0.075199737
1237,0.473257022,0.434935635,0.109392075
1238,0.383316439,0.385732863,0.109399036
1239,0.38307906,0.389044933,0.062610256
1240,0.393060345,0.413942512,0.060809052
1241,0.470170888,0.434875128,0.05406182
1242,0.373266483,0.376891366,0.05724352
1243,0.313292337,0.384480229,0.099798091
1244,0.424728362,0.448980937,0.108998811
1245,0.5334647,0.518232998,0.033460876
1246,0.433001604,0.416416623,0.052296487
1247,0.401178704,0.404222023,0.041580597
1248,0.407676912,0.410526895,0.105732004
1249,0.459389335,0.477203394,0.075495932
1250,0.437438502,0.425194389,0.09188551
1251,0.621204167,0.726741583,0.101391483
1252,0.421595558,0.420617304,0.067245674
1253,0.502340567,0.503714077,0.096431148
1254,0.525093149,0.50322564,0.028973689
1255,0.423433494,0.418835652,0.097416437
1256,0.419925602,0.417087601,0.043213205
1257,0.426416539,0.423400092,0.10769684
1258,0.508129557,0.499171386,0.049090412
1259,0.415852742,0.417338953,0.063663608
1260,0.369473229,0.433142726,0.079834513
1261,0.439764013,0.431090274,0.050724339
1262,0.546641054,0.528436151,0.082120872
1263,0.450697507,0.455280171,0.054346489
1264,0.405806718,0.405522149,0.09679513
1265,0.406293683,0.4055895,0.125918012
1266,0.444603997,0.428959331,0.122580042
1267,0.429955663,0.4408796,0.035536436
1268,0.535091714,0.398422688,0.10458925
1269,0.398577346,0.391222286,0.13395156
1270,0.472684921,0.451564342,0.081835524
1271,0.49395547,0.49128034,0.050126963
1272,0.390276579,0.392790714,0.048802271
1273,0.384515785,0.385575161,0.063913987
1274,0.389913244,0.390075288,0.09470196
1275,0.469087934,0.461937435,0.031681532
1276,0.369935357,0.378022676,0.108311583
1277,0.312463579,0.322929659,0.098020558
1278,0.412742189,0.411789066,0.097272958
1279,0.520189017,0.506927584,0.066589115
1280,0.419751569,0.413980511,0.106037631
1281,0.386219204,0.388751414,0.027830348
1282,0.391643871,0.393990485,0.087160845
1283,0.444671038,0.451564376,0.079242953
1284,0.417992526,0.410806228,0.108931945
1285,0.657302179,0.697940799,0.12922508
1286,0.403602507,0.404327891,0.033661893
1287,0.490450409,0.494042605,0.128081657
1288,0.503670003,0.475392351,0.045547917
1289,0.409356264,0.405384626,0.047241096
1290,0.409230686,0.408413023,0.07774498
1291,0.419085983,0.422175777,0.124705702
1292,0.502133115,0.47919181,0.06928155
1293,0.40892555,0.380905036,0.113358774
1294,0.358589065,0.359564926,0.078473737
1295,0.445560086,0.451033457,0.064739157
1296,0.555435784,0.541156066,0.0419494
1297,0.464125988,0.441373847,0.10314721
1298,0.417838894,0.415112367,0.126586057
1299,0.420014588,0.417829477,0.105212524
1300,0.451114714,0.464568,0.051371891
1301,0.458816063,0.435650557,0.078580103
1302,0.420625807,0.619042051,0.124213512
1303,0.405291382,0.427684105,0.096332605
1304,0.470016079,0.494491302,0.122114787
1305,0.531534228,0.512267493,0.073170244
1306,0.413808649,0.415804142,0.048142594
1307,0.397612983,0.407789051,0.095034632
1308,0.398975516,0.409865287,0.042321049
1309,0.474377407,0.482235257,0.109048874
1310,0.400056805,0.399509427,0.113762091
1311,0.683638005,0.404921222,0.117806814
1312,0.396176262,0.413517052,0.101698262
1313,0.495181062,0.510096749,0.085446672
1314,0.458930853,0.435608749,0.128332062
1315,0.380342362,0.388056708,0.053634822
1316,0.380833662,0.389899551,0.06349787
1317,0.394542184,0.417278114,0.128263019
1318,0.453952698,0.428367562,0.090222595
1319,0.343481799,0.398537574,0.067162479
1320,0.324205913,0.385330196,0.128689026
1321,0.424527147,0.447876824,0.089608311
1322,0.524694883,0.509573237,0.057633758
1323,0.414933159,0.406727518,0.057375172
1324,0.391185047,0.39669603,0.069505939
1325,0.397928875,0.40299451,0.115266157
1326,0.459674048,0.474428201,0.120827816
1327,0.422104036,0.415353849,0.102343246
1328,0.701375723,0.702669113,0.048687773
1329,0.413502573,0.414858898,0.030235053
1330,0.500396295,0.503234518,0.036932961
1331,0.515525148,0.496528171,0.082939668
1332,0.417480949,0.414704248,0.046924292
1333,0.415487659,0.414386127,0.057285014
1334,0.423486468,0.421783434,0.073481032
1335,0.509127118,0.500064798,0.098866791
1336,0.420402183,0.42060047,0.077270378
1337,0.428145586,0.489541133,0.11508686
1338,0.438707554,0.434070375,0.11153509
1339,0.547847242,0.530605012,0.1004967
1340,0.471920839,0.476986741,0.062375311
1341,0.412705142,0.413775566,0.055803252
1342,0.413099395,0.413188125,0.033692436
1343,0.432829407,0.423731335,0.059500596
1344,0.46606894,0.476932483,0.055022725
1345,0.359505597,0.379393931,0.087370953
1346,0.366992983,0.331439172,0.069336193
1347,0.4454793,0.428685634,0.058118101
1348,0.528564401,0.51859568,0.106038063
1349,0.409956517,0.419644048,0.049154542
1350,0.387702831,0.389724015,0.033661233
1351,0.389351327,0.391120433,0.079884557
1352,0.457037508,0.436943933,0.079844147
1353,0.396903647,0.406325893,0.080556812
1354,0.724548451,0.619692999,0.11231657
1355,0.393199073,0.393583236,0.115163841
1356,0.4887126,0.470183476,0.123073656
1357,0.464056217,0.469001206,0.059502424
1358,0.383507655,0.38827143,0.049499961
1359,0.384893805,0.388192925,0.057145178
1360,0.398691692,0.398296201,0.022946905
1361,0.459328107,0.459245914,0.118020565
1362,0.349871275,0.362990495,0.122383624
1363,0.337397659,0.338737809,0.076036375
1364,0.436301632,0.432858133,0.085517358
1365,0.531545524,0.519213816,0.080493565
1366,0.420202089,0.419695868,0.095389441
1367,0.401389435,0.403295078,0.030411434
1368,0.408406994,0.409614799,0.110415479
1369,0.480590628,0.477160957,0.106609587
1370,0.424503562,0.421880338,0.056398419
1371,0.749051552,0.673371247,0.062460549
1372,0.420695008,0.425583315,0.047277859
1373,0.518969302,0.51918182,0.140164753
1374,0.500014535,0.480135755,0.100491728
1375,0.416606626,0.417990699,0.014031605
1376,0.417093857,0.419864579,0.112760513
1377,0.42831184,0.436778963,0.09884841
1378,0.496398447,0.47187144,0.075712858
1379,0.390936557,0.380657013,0.086984987
1380,0.339663923,0.398636807,0.043818326
1381,0.44877731,0.464136777,0.054067028
1382,0.551260411,0.527012577,0.047879807
1383,0.442427765,0.421461792,0.104708509
1384,0.405933029,0.407778172,0.05532651
1385,0.406527417,0.409248346,0.064856989
1386,0.451363342,0.479634594,0.076650111
1387,0.426849775,0.408704328,0.10447876
1388,0.565191583,0.50210834,0.045922143
1389,0.397878336,0.408137347,0.068328258
1390,0.472279325,0.50337035,0.02970298
1391,0.49476039,0.435572785,0.036651026
1392,0.389936073,0.385563493,0.065598569
1393,0.383638113,0.386785757,0.045557133
1394,0.388474505,0.41620792,0.108501465
1395,0.470764324,0.417002039,0.079484077
1396,0.379636877,0.457555152,0.054030593
1397,0.334211774,0.382411732,0.069540191
1398,0.407701589,0.448336289,0.073075804
1399,0.517752657,0.483761929,0.080465392
1400,0.422820326,0.389135845,0.126714221
1401,0.385295459,0.385779407,0.113948107
1402,0.390850802,0.393262052,0.072802737
1403,0.440284555,0.470527988,0.099776473
1404,0.420131113,0.393124241,0.068310762
1405,0.625723862,0.363078605,0.103695481
1406,0.405434724,0.417539568,0.094622568
1407,0.488765914,0.519934428,0.039722093
1408,0.506514719,0.448082347,0.05850072
1409,0.410907724,0.404427904,0.103292695
1410,0.410507595,0.409771207,0.058637129
1411,0.420347658,0.436530821,0.039849083
1412,0.502363579,0.459386851,0.121858299
1413,0.405735275,0.389498434,0.097602679
1414,0.348506937,0.397019745,0.112542899
1415,0.444278455,0.463101785,0.046726682
1416,0.554803201,0.539430028,0.058767686
1417,0.462035205,0.434263649,0.133796379
1418,0.415931448,0.414837014,0.027755707
1419,0.418234288,0.417721896,0.13224152
1420,0.448919416,0.470162868,0.074935347
1421,0.459182562,0.433482054,0.078861767
1422,0.4061355,0.622784041,0.08691915
1423,0.399820211,0.412841198,0.047546107
1424,0.464810198,0.477645581,0.069686735
1425,0.534049289,0.508882429,0.115963254
1426,0.415047706,0.406599269,0.125383117
1427,0.396381756,0.396696824,0.04946814
1428,0.397435418,0.398497757,0.039129538
1429,0.465786012,0.470362161,0.112247792
1430,0.403256116,0.398691144,0.106817974
1431,0.736251696,0.659068512,0.117817675
1432,0.4004483,0.398047661,0.062893591
1433,0.488856211,0.485556186,0.073866616
1434,0.476662821,0.462532364,0.112875529
1435,0.385783029,0.384878551,0.125803134
1436,0.384058337,0.384013482,0.071797097
1437,0.393178409,0.392408236,0.07962674
1438,0.467524286,0.463121974,0.090591233
1439,0.368610072,0.378649156,0.124707401
1440,0.308821533,0.331955775,0.060562208
1441,0.417590673,0.411080805,0.090573047
1442,0.525115411,0.512659172,0.096930359
1443,0.423017417,0.433430391,0.028790155
1444,0.392324482,0.393776267,0.049402299
1445,0.398771297,0.399168563,0.052800019
1446,0.453666731,0.430317033,0.092476648
1447,0.426279828,0.444385918,0.080563834
1448,0.660453143,0.401687428,0.069578975
1449,0.412564548,0.40290415,0.121220904
1450,0.496702343,0.466366218,0.122472887
1451,0.513992165,0.527103863,0.076933039
1452,0.417184066,0.426081673,0.087690421
1453,0.415441178,0.416284307,0.058044144
1454,0.423641172,0.421536547,0.079353979
1455,0.507660934,0.493329747,0.1092091
1456,0.415252845,0.427897195,0.089128388
1457,0.382851454,0.657550026,0.072371145
1458,0.438924824,0.432470728,0.075407211
1459,0.548822936,0.524008088,0.085643099
1460,0.46545714,0.482279634,0.032159704
1461,0.411004481,0.415907413,0.118638894
1462,0.411825909,0.415165411,0.045563061
1463,0.435320883,0.428321077,0.075004029
1464,0.458581589,0.467274385,0.1101531
1465,0.363511675,0.367134442,0.096323595
1466,0.376742708,0.372001733,0.080820565
1467,0.448289846,0.444642051,0.091127067
1468,0.525090697,0.515780875,0.087359976
1469,0.405934477,0.409548792,0.053174033
1470,0.386536576,0.392401205,0.096545686
1471,0.388432523,0.394006126,0.065486578
1472,0.460016965,0.461841377,0.091770092
1473,0.394092435,0.395554003,0.126675923
1474,0.713590852,0.579747469,0.085001936
1475,0.39508558,0.398291282,0.12694931
1476,0.493778911,0.49318989,0.090725299
1477,0.45855662,0.437538072,0.087715966
1478,0.383751633,0.384296029,0.103695015
1479,0.385770654,0.387904577,0.113306869
1480,0.403742906,0.414628276,0.074300603
1481,0.450656482,0.426589773,0.096406697
1482,0.346350606,0.430782388,0.090522216
1483,0.364793459,0.39585235,0.093961096
1484,0.446283414,0.463047099,0.100937242
1485,0.525578635,0.497077165,0.103382791
1486,0.413662052,0.406061144,0.034173869
1487,0.402421927,0.404446796,0.071003006
1488,0.409771327,0.413573543,0.028318672
1489,0.492966559,0.48626221,0.112804334
1490,0.418857343,0.402365214,0.045034552
1491,0.560285508,0.344194037,0.077793412
1492,0.427897709,0.444191034,0.066727983
1493,0.53718144,0.539120623,0.061587504
1494,0.478249539,0.444731843,0.038283988
1495,0.415798206,0.417885087,0.071724792
1496,0.418554121,0.421699274,0.029208245
1497,0.439251032,0.472746569,0.070456211
1498,0.476373411,0.436178588,0.114527135
1499,0.373868958,0.703410611,0.046233221
1500,0.388870336,0.419175795,0.076978956
1501,0.463989955,0.497358483,0.096759205
1502,0.547480753,0.495213275,0.097330684
1503,0.428463559,0.409595572,0.063589053
1504,0.405083477,0.40570587,0.052046935
1505,0.406220144,0.410610303,0.06941799
1506,0.467395517,0.478438746,0.096296797
1507,0.416514542,0.38663474,0.047156086
1508,0.713887612,0.334960975,0.061893787
1509,0.40249547,0.418957712,0.083229459
1510,0.486915722,0.515091768,0.11332992
1511,0.487064172,0.429439865,0.079721798
1512,0.389476683,0.386622462,0.070187158
1513,0.385087489,0.387937535,0.107032181
1514,0.390835204,0.41555526,0.068037173
1515,0.470876414,0.425298207,0.05635789
1516,0.376508319,0.380748349,0.092901869
1517,0.32508301,0.376024517,0.107205078
1518,0.405459694,0.437738483,0.086894402
1519,0.515736985,0.501240171,0.094328021
1520,0.422451722,0.398148572,0.093875819
1521,0.383522438,0.387117973,0.065334469
1522,0.389356255,0.39293694,0.139068688
1523,0.433496425,0.463544964,0.074839206
1524,0.423867699,0.405531079,0.073218789
1525,0.539627431,0.69462516,0.069926333
1526,0.403081326,0.410225116,0.085270833
1527,0.480319317,0.500077796,0.056379236
1528,0.515984886,0.484001743,0.137329722
1529,0.413451357,0.409454894,0.109940005
1530,0.410227114,0.411500904,0.095436262
1531,0.418370314,0.422656139,0.104306233
1532,0.505136955,0.490936114,0.065864784
1533,0.419739732,0.402713001,0.093273817
1534,0.444710592,0.348146181,0.067542596
1535,0.43863664,0.446003005,0.078422123
1536,0.548903602,0.544281649,0.086021921
1537,0.478935045,0.456699258,0.025186104
1538,0.417495118,0.417547482,0.020604115
1539,0.418831255,0.419561655,0.12074519
1540,0.437217856,0.448434766,0.093913354
1541,0.478752318,0.454987067,0.091141878
1542,0.367445456,0.411855666,0.110709296
1543,0.363378752,0.403117386,0.074505032
1544,0.450722649,0.461376592,0.088825549
1545,0.542120146,0.525042247,0.066804674
1546,0.424843269,0.416747472,0.069726579
1547,0.396315613,0.399113978,0.048952859
1548,0.397303631,0.399967762,0.076759357
1549,0.451347097,0.458879296,0.106622702
1550,0.411792774,0.407266429,0.081412465
1551,0.643809098,0.68965752,0.085202419
1552,0.394766028,0.398976222,0.076331254
1553,0.476349688,0.476118551,0.062915345
1554,0.48303637,0.476191846,0.080797989
1555,0.386036539,0.389447806,0.133832447
1556,0.382959224,0.386617172,0.086540831
1557,0.390486608,0.393311523,0.09009433
1558,0.468716098,0.466592541,0.113356772
1559,0.370158854,0.38389835,0.107056559
1560,0.307712438,0.34567917,0.137404806
1561,0.415285225,0.414684397,0.092956039
1562,0.522524824,0.513683044,0.104151107
1563,0.420469481,0.429020511,0.113496144
1564,0.391376762,0.396462523,0.112367629
1565,0.397987384,0.40195033,0.107140587
1566,0.457809154,0.447179555,0.117670578
1567,0.421124855,0.428370782,0.113867294
1568,0.722418632,0.617656994,0.090134776
1569,0.410968352,0.415685027,0.084463149
1570,0.503490793,0.493140866,0.031473661
1571,0.501232587,0.499763547,0.024604947
1572,0.413402634,0.418321379,0.126428917
1573,0.414179994,0.418284462,0.094742396
1574,0.425061802,0.427961587,0.062321189
1575,0.499675328,0.491462881,0.062828433
1576,0.400300183,0.397468599,0.059534441
1577,0.339341092,0.357578933,0.033415654
1578,0.449647118,0.454102617,0.072434622
1579,0.55570305,0.543667609,0.089132253
1580,0.451445703,0.443360953,0.081194205
1581,0.412931027,0.415798268,0.064491533
1582,0.414260855,0.417015164,0.096511671
1583,0.454224773,0.465686818,0.084802273
1584,0.440322586,0.42856826,0.117148503
1585,0.506798513,0.670287359,0.021412605
1586,0.40485067,0.40958033,0.06980849
1587,0.473810377,0.483833462,0.087705519
1588,0.510947006,0.4874718,0.089916974
1589,0.399295272,0.397555626,0.072086725
1590,0.389316667,0.392666592,0.150405402
1591,0.392403918,0.396967066,0.075405313
1592,0.474887328,0.468351243,0.090128928
1593,0.387954903,0.383961593,0.109191981
1594,0.444464598,0.341957884,0.082666009
1595,0.400572978,0.40960452,0.106958413
1596,0.509552774,0.507438559,0.068433877
1597,0.432282575,0.422254734,0.153032898
1598,0.380477408,0.385567198,0.066941204
1599,0.384318758,0.389359126,0.107759237
1600,0.417635144,0.428090244,0.069196762
1601,0.427009058,0.418340796,0.085111821
1602,0.431949642,0.526598693,0.04558928
1603,0.389749414,0.402021707,0.120649099
1604,0.461655716,0.472254933,0.054357329
1605,0.514261511,0.496511798,0.102621673
1606,0.406427563,0.407215598,0.077643324
1607,0.400887404,0.406341714,0.071119583
1608,0.409235013,0.415171169,0.113899351
1609,0.496140979,0.488574766,0.048106404
1610,0.415705087,0.405011208,0.094391844
1611,0.493779584,0.348850123,0.069883608
1612,0.428360194,0.443763854,0.081626802
1613,0.53915901,0.541627273,0.085562979
1614,0.478988515,0.452514485,0.104338703
1615,0.415226396,0.419091408,0.027087334
1616,0.417800508,0.42252113,0.093278114
1617,0.435030752,0.461647706,0.049912918
1618,0.48575483,0.447432449,0.049777309
1619,0.37468787,0.553052384,0.055158967
1620,0.354373366,0.416665445,0.102319947
1621,0.452574109,0.480780742,0.075271567
1622,0.550330755,0.516232728,0.052335108
1623,0.436889561,0.415214253,0.062049203
1624,0.404081345,0.405221462,0.080254722
1625,0.404975535,0.407173336,0.091002052
1626,0.451451947,0.479062357,0.122990509
1627,0.425940193,0.405926577,0.106309969
1628,0.547103759,0.614267373,0.056967368
1629,0.395708736,0.404415721,0.072736233
1630,0.468540707,0.49480538,0.0962625
1631,0.497075214,0.457921352,0.098693817
1632,0.389175267,0.386412675,0.096437406
1633,0.382009467,0.385580862,0.084591378
1634,0.386794238,0.395618531,0.110723595
1635,0.470333562,0.454656835,0.116108962
1636,0.382374416,0.360650676,0.048115986
1637,0.382526148,0.31198717,0.069458409
1638,0.404500814,0.412595873,0.113991375
1639,0.515127822,0.506706219,0.077674824
1640,0.430504772,0.41188416,0.073700238
1641,0.385403076,0.385718439,0.104796229
1642,0.390603838,0.391120543,0.124914366
1643,0.429735691,0.442023172,0.150606951
1644,0.429306039,0.41431421,0.10103472
1645,0.491179531,0.636863256,0.074283749
1646,0.401901949,0.406252226,0.080731793
1647,0.476877251,0.485373693,0.065034991
1648,0.520862361,0.492045875,0.092687602
1649,0.414878862,0.410546078,0.04682152
1650,0.410229735,0.411221807,0.046118293
1651,0.418163773,0.421191952,0.043336331
1652,0.504984833,0.490356941,0.086786855
1653,0.421771138,0.401153963,0.061167928
1654,0.480120628,0.348472084,0.066612042
1655,0.437135581,0.448152411,0.079747052
1656,0.546982299,0.544081602,0.082439894
1657,0.478874245,0.451151054,0.045667153
1658,0.417441738,0.418236608,0.046414054
1659,0.41877398,0.420445933,0.072259896
1660,0.438584044,0.459611005,0.131372178
1661,0.474674482,0.443210171,0.05786845
1662,0.367953722,0.539782501,0.093848652
1663,0.376675736,0.414107541,0.052195076
1664,0.455526177,0.477512518,0.081509065
1665,0.537387268,0.510612643,0.06616483
1666,0.4181593,0.409239231,0.02888581
1667,0.397101401,0.399482981,0.098330938
1668,0.398066399,0.401314309,0.094303145
1669,0.467108787,0.474434617,0.07354686
1670,0.402105093,0.398584958,0.075686349
1671,0.716607455,0.545863662,0.091350521
1672,0.399280411,0.4018145,0.039783866
1673,0.497189888,0.496183038,0.083465302
1674,0.459891122,0.444587433,0.120735415
1675,0.383466165,0.384114988,0.088290272
1676,0.384013875,0.385521438,0.112491758
1677,0.401299166,0.402458675,0.084999747
1678,0.447298236,0.441318343,0.106720603
1679,0.340286102,0.339466671,0.09544328
1680,0.357821743,0.359715436,0.124583386
1681,0.438124768,0.43487915,0.071398051
1682,0.520974288,0.511298302,0.134306289
1683,0.407509224,0.409474826,0.126377251
1684,0.393458787,0.396174477,0.083845053
1685,0.400475327,0.402494538,0.068542381
1686,0.4791753,0.472201543,0.097189637
1687,0.413456737,0.413911101,0.086764441
1688,0.687213835,0.656947475,0.053176756
1689,0.417803775,0.419768472,0.048144735
1690,0.521786327,0.514104072,0.066622143
1691,0.490925493,0.479582132,0.075580275
1692,0.413432977,0.414733805,0.102261235
1693,0.415863783,0.417496076,0.140347453
1694,0.429291992,0.432727357,0.069854254
1695,0.49725377,0.480290299,0.115371317
1696,0.392097513,0.380597692,0.116555599
1697,0.34139768,0.378373693,0.087900809
1698,0.45193874,0.458745003,0.077098416
1699,0.556311762,0.541785353,0.096647236
1700,0.449723619,0.437342283,0.075831053
1701,0.412333422,0.413765389,0.065625369
1702,0.413738345,0.415197167,0.092878259
1703,0.454846633,0.467079048,0.080815246
1704,0.440018314,0.426562891,0.122188788
1705,0.504190391,0.666314838,0.098763479
1706,0.404957397,0.409563557,0.105373801
1707,0.473986557,0.482619844,0.076616064
1708,0.511963239,0.490146866,0.085388433
1709,0.399792554,0.398131214,0.071030568
1710,0.389847581,0.392582714,0.05332409
1711,0.392604285,0.396222691,0.098415947
1712,0.475129915,0.469752259,0.110636757
1713,0.388901401,0.387012543,0.115662745
1714,0.465667031,0.376003694,0.05798484
1715,0.39896769,0.405586291,0.082981397
1716,0.507676288,0.504101543,0.067620352
1717,0.437059529,0.427869579,0.10407929
1718,0.380076605,0.384234317,0.02290666
1719,0.383654885,0.387829381,0.064950942
1720,0.410657478,0.418439523,0.095083666
1721,0.436607412,0.426304043,0.075067797
1722,0.366481216,0.419355667,0.071898698
1723,0.381814379,0.393281535,0.079317594
1724,0.453178143,0.457675984,0.091869227
1725,0.526706895,0.505492372,0.082786943
1726,0.413825123,0.408621718,0.116136306
1727,0.402173128,0.403581404,0.041509111
1728,0.409532213,0.411023541,0.12289778
1729,0.488441845,0.488624478,0.032037576
1730,0.422669995,0.415962735,0.117311281
1731,0.724486974,0.470141975,0.061316094
1732,0.424431088,0.431884864,0.049784949
1733,0.525267821,0.531535712,0.12993532
1734,0.499299913,0.468102496,0.075311601
1735,0.417902772,0.417503204,0.050515511
1736,0.418686028,0.420313982,0.069024858
1737,0.429831521,0.443366401,0.12232698
1738,0.498290883,0.464380155,0.110162388
1739,0.393499014,0.396137885,0.040548513
1740,0.336643187,0.405849862,0.103627739
1741,0.446245918,0.466700462,0.098478592
1742,0.548073639,0.528335561,0.057246704
1743,0.43883213,0.42248169,0.052928862
1744,0.404279298,0.407240175,0.069083815
1745,0.405163758,0.408559464,0.127590367
1746,0.455056495,0.475242194,0.058748307
1747,0.420705643,0.408913412,0.078676727
1748,0.65008239,0.657009238,0.080410509
1749,0.400664889,0.408363288,0.059651205
1750,0.481565643,0.497541042,0.042625762
1751,0.486926244,0.458535328,0.106349636
1752,0.388628031,0.389778682,0.074770036
1753,0.384467392,0.389111964,0.07952032
1754,0.391530522,0.402035805,0.063993017
1755,0.466602997,0.4474487,0.043235615
1756,0.367471422,0.34730758,0.049892107
1757,0.303243531,0.343922973,0.041431313
1758,0.412631583,0.425648047,0.093618675
1759,0.519578485,0.507428702,0.083542967
1760,0.417032802,0.405148329,0.027927025
1761,0.384761537,0.388584819,0.078867943
1762,0.390577223,0.393998301,0.091659008
1763,0.4417132,0.458436024,0.080228566
1764,0.419754432,0.409944995,0.109799084
1765,0.607934032,0.70053476,0.06702407
1766,0.402183777,0.407653452,0.049150679
1767,0.48438978,0.4967221,0.091732973
1768,0.510600545,0.480296679,0.053414882
1769,0.410507198,0.407881088,0.053000463
1770,0.408562189,0.410420883,0.056112706
1771,0.417489167,0.422755559,0.050793298
1772,0.503486251,0.485207603,0.041071639
1773,0.416579448,0.392279685,0.08832439
1774,0.417488431,0.350692004,0.107266552
1775,0.439532513,0.449772584,0.031977994
1776,0.54954949,0.543235187,0.097169915
1777,0.467274901,0.446639256,0.092112398
1778,0.416590132,0.417047402,0.079604471
1779,0.418663878,0.419456731,0.021341969
1780,0.448552957,0.462214085,0.0709857
1781,0.457561287,0.439788108,0.113315873
1782,0.427855641,0.573229206,0.09910822
1783,0.40660293,0.415657139,0.051358008
1784,0.472432955,0.480159095,0.132209694
1785,0.524498511,0.506371968,0.070219768
1786,0.409984657,0.407936187,0.045131083
1787,0.397398863,0.39994355,0.10762878
1788,0.399311772,0.402058543,0.057946236
1789,0.480078924,0.475965398,0.052056978
1790,0.395107421,0.396544069,0.088832126
1791,0.485211198,0.439993146,0.093590581
1792,0.40181843,0.404139693,0.091977481
1793,0.508706742,0.500902721,0.061872542
1794,0.441786129,0.435324715,0.053030881
1795,0.379661811,0.382666815,0.049117618
1796,0.381838603,0.385040919,0.037485334
1797,0.402901119,0.406711874,0.065380617
1798,0.43924028,0.431983196,0.05184472
1799,0.333561746,0.40690282,0.089073723
1800,0.362170176,0.271432658,0.124463618
1801,0.439770033,0.348276074,0.083834707
1802,0.527478036,0.425514478,0.076575156
1803,0.41287885,0.332103443,0.110096174
1804,0.394635937,0.327322764,0.089369305
1805,0.401230067,0.340058185,0.099681515
1806,0.467923005,0.416173549,0.126144307
1807,0.422815454,0.364523374,0.07428602
1808,0.718026744,0.652193837,0.042515653
1809,0.41858553,0.376775619,0.05617448
1810,0.506081801,0.471191943,0.137195262
1811,0.518331932,0.454467394,0.092593151
1812,0.420561714,0.384917953,0.135160477
1813,0.418883271,0.389488699,0.076590709
1814,0.426864094,0.403012836,0.033099172
1815,0.511032711,0.468495034,0.05419252
1816,0.418945896,0.375441693,0.095236862
1817,0.40069654,0.332314926,0.097283168
1818,0.442109496,0.430377404,0.081863949
1819,0.551073618,0.525292121,0.103436064
1820,0.462025525,0.430031098,0.07891817
1821,0.413510616,0.400342526,0.067934488
1822,0.414451167,0.402887292,0.079263126
1823,0.448251373,0.446464329,0.09797006
1824,0.444718334,0.421986849,0.116342025
1825,0.4795768,0.582150472,0.063065006
1826,0.404525624,0.400333314,0.036129892
1827,0.472919163,0.469797449,0.094226599
1828,0.51111491,0.484604505,0.079230833
1829,0.399675061,0.392177635,0.106405013
1830,0.389889217,0.38700606,0.11409115
1831,0.393095453,0.391802022,0.088056914
1832,0.475284661,0.46310791,0.109942741
1833,0.386328027,0.378365838,0.054497877
1834,0.399543773,0.326984466,0.107399771
1835,0.402779826,0.40506528,0.062418706
1836,0.512395673,0.50247861,0.032403633
1837,0.436765671,0.415550534,0.076759217
1838,0.380860015,0.381183005,0.056448543
1839,0.384382656,0.385732667,0.058658506
1840,0.410257976,0.426600547,0.080949816
1841,0.440757229,0.412635506,0.062403418
1842,0.351519371,0.55383133,0.12431997
1843,0.367371692,0.393589132,0.081028837
1844,0.444107632,0.465526295,0.081970207
1845,0.528454151,0.491571861,0.07553542
1846,0.4147264,0.401801428,0.072100561
1847,0.399827853,0.400533005,0.032665736
1848,0.407059298,0.409222203,0.113681187
1849,0.479936526,0.486538458,0.096679151
1850,0.424409424,0.408819308,0.02651424
1851,0.760457754,0.386491492,0.107173541
1852,0.429517185,0.432993575,0.122609816
1853,0.525117378,0.533880572,0.081615443
1854,0.506312052,0.458602665,0.077549933
1855,0.42333817,0.415729061,0.06003661
1856,0.423466932,0.419023263,0.040425608
1857,0.435406213,0.447486027,0.130053852
1858,0.496004818,0.456524596,0.062785707
1859,0.385120714,0.427442489,0.070896717
1860,0.359257609,0.41289773,0.041547995
1861,0.458044334,0.472387081,0.036031231
1862,0.548405903,0.523069425,0.036618167
1863,0.431714456,0.419664545,0.110349804
1864,0.408009958,0.407419966,0.099427177
1865,0.4088918,0.409045848,0.080338156
1866,0.478921451,0.479675975,0.045774835
1867,0.410418889,0.406799093,0.038652228
1868,0.671306148,0.569988997,0.068661504
1869,0.403092109,0.407412504,0.062027366
1870,0.503227404,0.500362673,0.052886476
1871,0.458203311,0.448831523,0.051986976
1872,0.383233643,0.387321471,0.053493019
1873,0.383041892,0.387621168,0.089082442
1874,0.398680343,0.403148778,0.053272788
1875,0.445075483,0.439860225,0.07820181
1876,0.327225609,0.344016221,0.134472054
1877,0.344983279,0.355523746,0.078086533
1878,0.428979389,0.427428819,0.081297992
1879,0.520916354,0.50510983,0.047486015
1880,0.406678829,0.402052287,0.0419118
1881,0.385092958,0.386542407,0.102212728
1882,0.39103235,0.392179513,0.118582748
1883,0.453924579,0.456884503,0.112864321
1884,0.414357055,0.407463477,0.046344789
1885,0.682848491,0.705738642,0.045404837
1886,0.41071353,0.407030366,0.041285546
1887,0.495077791,0.493580658,0.115145426
1888,0.51281337,0.48678075,0.119404606
1889,0.415148875,0.408686182,0.094460908
1890,0.41342323,0.410043867,0.089444212
1891,0.421798871,0.420161606,0.106898757
1892,0.508461771,0.492101587,0.080536502
1893,0.421404355,0.404082922,0.101750352
1894,0.437223181,0.354695079,0.092019944
1895,0.439449976,0.440815722,0.068123932
1896,0.549886643,0.539738495,0.041863382
1897,0.468866926,0.455184837,0.141854016
1898,0.417342726,0.415601951,0.033922992
1899,0.41934208,0.417832548,0.027784616
1900,0.449907641,0.448828753,0.084472413
1901,0.456595127,0.449766343,0.072720764
1902,0.443275755,0.440106242,0.097791017
1903,0.408911343,0.41012022,0.052747184
1904,0.474967463,0.469502632,0.115604594
1905,0.522591743,0.514709058,0.124593107
1906,0.40927047,0.410972661,0.065711339
1907,0.397656372,0.399659134,0.087859554
1908,0.399775989,0.401337036,0.060430098
1909,0.480741961,0.473440904,0.087449542
1910,0.39525373,0.399322795,0.04685321
1911,0.457816221,0.520293573,0.027479283
1912,0.399592495,0.402457439,0.104277878
1913,0.507046783,0.49774688,0.063027869
1914,0.440905998,0.439178707,0.119227461
1915,0.377284707,0.383663432,0.153949658
1916,0.379370222,0.385508064,0.065185853
1917,0.399001493,0.406452163,0.050430238
1918,0.443032726,0.432546137,0.051300841
1919,0.324407634,0.359956566,0.037500528
1920,0.343885001,0.375015906,0.113482484
1921,0.432115376,0.439464364,0.037020119
1922,0.528619149,0.504793886,0.032028408
1923,0.416531599,0.403492001,0.027322995
1924,0.392831592,0.393917623,0.085103532
1925,0.399371155,0.400623846,0.142570162
1926,0.456313733,0.474329771,0.116438999
1927,0.428729171,0.411286327,0.07304327
1928,0.599569853,0.624835129,0.091973844
1929,0.415671154,0.418309962,0.033056709
1930,0.493614548,0.514406083,0.05227551
1931,0.52603407,0.476059694,0.125102861
1932,0.421950231,0.413093513,0.121244767
1933,0.417796075,0.416164359,0.1148117
1934,0.424553037,0.431131196,0.040565635
1935,0.510367836,0.480244641,0.086074443
1936,0.424527223,0.380453405,0.022080125
1937,0.475625862,0.371181452,0.054150007
1938,0.440605294,0.456266286,0.145624842
1939,0.548856043,0.540079502,0.062996674
1940,0.469016823,0.436162861,0.043172517
1941,0.415054351,0.413106677,0.113272899
1942,0.415649925,0.414669302,0.066187033
1943,0.445479724,0.46940564,0.10174585
1944,0.449030808,0.423513952,0.108834192
1945,0.454041083,0.700471884,0.117229597
1946,0.404000015,0.411080225,0.120585613
1947,0.471407446,0.48935695,0.071252883
1948,0.511439417,0.480971882,0.089651111
1949,0.400066597,0.396744687,0.082371546
1950,0.390315086,0.393193186,0.035317425
1951,0.393637782,0.399522889,0.085494925
1952,0.475201194,0.463320895,0.068018118
1953,0.38570294,0.37062035,0.145309053
1954,0.368012166,0.31523607,0.09098317
1955,0.404455496,0.41405117,0.071989784
1956,0.514373891,0.507704336,0.063497235
1957,0.429588813,0.412756396,0.092620964
1958,0.380849867,0.383743218,0.032861187
1959,0.384801648,0.387822557,0.078033735
1960,0.418060736,0.435266968,0.106535089
1961,0.429229846,0.410832271,0.108546146
1962,0.412362203,0.6083797,0.048311061
1963,0.388329101,0.396080884,0.13264517
1964,0.458851873,0.471254956,0.090410607
1965,0.519383642,0.489860423,0.101544176
1966,0.409517702,0.402555232,0.113345029
1967,0.401750849,0.40190188,0.073752888
1968,0.409421036,0.410507001,0.100805977
1969,0.493811381,0.488274715,0.056350114
1970,0.419822277,0.409883628,0.080342549
1971,0.623611537,0.391741255,0.03624902
1972,0.432539379,0.435030871,0.089496417
1973,0.539682716,0.535776272,0.118257061
1974,0.486534976,0.462308479,0.079075956
1975,0.420443584,0.417024977,0.063509397
1976,0.422595187,0.420089424,0.119392384
1977,0.442198508,0.44559717,0.051457258
1978,0.479715714,0.461675282,0.026773559
1979,0.37329286,0.399219111,0.065056828
1980,0.390710203,0.405888631,0.051005914
1981,0.46601564,0.466344677,0.102277545
1982,0.542060906,0.526788294,0.073208519
1983,0.423712611,0.420931396,0.055074538
1984,0.406330869,0.40634139,0.071833078
1985,0.407722198,0.407809501,0.072235188
1986,0.483043092,0.475081088,0.063997066
1987,0.406987977,0.408457221,0.105920042
1988,0.624358456,0.647560662,0.10790151
1989,0.406546833,0.405805196,0.072541036
1990,0.508822684,0.495655649,0.029158723
1991,0.455578618,0.454640348,0.114301263
1992,0.384987179,0.388002757,0.046409789
1993,0.384940205,0.387685421,0.101019589
1994,0.401876875,0.401279433,0.056013675
1995,0.444181553,0.444057957,0.103652853
1996,0.33721039,0.341955757,0.114264067
1997,0.347978445,0.351063803,0.111600313
1998,0.429332239,0.427015627,0.058305846
1999,0.518215306,0.506615768,0.105677637
2000,0.403442902,0.4038967,0.065500442
2001,0.3841503,0.388043709,0.028946943
2002,0.390290711,0.393542673,0.083997933
2003,0.457862352,0.459173041,0.106018044
2004,0.410447433,0.407523168,0.120266719
2005,0.722751038,0.699665631,0.127565127
2006,0.403994964,0.40719682,0.058605926
2007,0.493751712,0.496723215,0.074237328
2008,0.50390116,0.480440583,0.112275642
2009,0.409260579,0.407678294,0.131528519
2010,0.408844465,0.410052933,0.124871603
2011,0.417914512,0.421882288,0.039206849
2012,0.504983049,0.486802816,0.083005948
2013,0.417414841,0.39663652,0.026338284
2014,0.432038445,0.346128436,0.079233165
2015,0.43633573,0.447167159,0.08293501
2016,0.546968217,0.542913739,0.044705668
2017,0.472305709,0.449471177,0.073594747
2018,0.415306698,0.416535822,0.081452744
2019,0.417088582,0.418897523,0.108580711
2020,0.439139635,0.457203338,0.115085323
2021,0.469834206,0.44339873,0.056400688
2022,0.369383871,0.516892356,0.030856616
2023,0.381541283,0.412831859,0.093692088
2024,0.456772818,0.475297207,0.060441659
2025,0.536100827,0.50821383,0.087952734
2026,0.416441588,0.408549533,0.133397504
2027,0.395853392,0.399425239,0.073188418
2028,0.397109421,0.401530776,0.062870098
2029,0.46720822,0.474954995,0.132613266
2030,0.401033828,0.396224301,0.095333575
2031,0.714868355,0.466343025,0.092683796
2032,0.396216238,0.402566025,0.110460277
2033,0.492780749,0.499106754,0.074441328
2034,0.462805726,0.435460953,0.068920606
2035,0.381659323,0.382463386,0.077164312
2036,0.381676281,0.384528506,0.099840889
2037,0.394935624,0.406474923,0.090434468
2038,0.455327974,0.431306821,0.100150858
2039,0.34538417,0.359784348,0.02955484
2040,0.322356977,0.373546982,0.050079048
2041,0.424331694,0.438092102,0.023532343
2042,0.523662717,0.506092714,0.055230626
2043,0.41344944,0.404190472,0.100244813
2044,0.391327899,0.39333801,0.066852803
2045,0.398104749,0.39994001,0.071872263
2046,0.462124117,0.470995841,0.097192903
2047,0.420086687,0.412486303,0.044537412
2048,0.730376626,0.685356705,0.102761775
2049,0.418108421,0.415833097,0.105722717
2050,0.510090876,0.507813962,0.079716743
2051,0.509130533,0.484795987,0.048532081
2052,0.418644891,0.413910624,0.096624212
2053,0.418568335,0.415923174,0.08331487
2054,0.428333459,0.427543572,0.040829763
2055,0.505879646,0.490002359,0.078703856
2056,0.409019394,0.396734767,0.069054256
2057,0.345372857,0.348154149,0.066331408
2058,0.448790846,0.447615729,0.044836493
2059,0.55485037,0.540505545,0.04209887
2060,0.451793397,0.443346795,0.129756544
2061,0.413534544,0.412606755,0.018997804
2062,0.414829159,0.41395907,0.09440269
2063,0.459951541,0.45775278,0.090618732
2064,0.434656702,0.43021989,0.130362335
2065,0.607371049,0.752848035,0.051289207
2066,0.410026477,0.736796617,0.003469769
2067,0.487121657,0.771507041,0.08229842
2068,0.499253392,0.750889026,0.05086669
2069,0.397421846,0.635962654,0.081915748
2070,0.391547584,0.608555174,0.057570665
2071,0.396861344,0.59345965,0.07153154
2072,0.472213348,0.641459729,0.059076186
2073,0.373484123,0.535424055,0.055224004
2074,0.306782127,0.462288095,0.062627362
2075,0.412568495,0.545298757,0.105802038
2076,0.517668583,0.626463793,0.094477368
2077,0.413425336,0.519693863,0.082197415
2078,0.380707666,0.481652282,0.061205393
2079,0.38520233,0.476472218,0.122043116
2080,0.439395684,0.519546592,0.131660329
2081,0.408720756,0.479600831,0.055280296
2082,0.662231901,0.745337416,0.08733051
2083,0.392133466,0.4665054,0.09109766
2084,0.479438957,0.542316243,0.060046683
2085,0.492591637,0.537454625,0.095988489
2086,0.398261793,0.451627434,0.052993458
2087,0.398596805,0.44822603,0.065484509
2088,0.408944376,0.454136402,0.143797247
2089,0.494075695,0.521652206,0.026383418
2090,0.403266528,0.431930547,0.106217281
2091,0.361634313,0.373123334,0.062089604
2092,0.436273131,0.46954551,0.068430271
2093,0.549183488,0.564349316,0.064704699
2094,0.465246381,0.47195533,0.118391033
2095,0.415261999,0.437317795,0.061226426
2096,0.418751863,0.438978105,0.109603764
2097,0.44542948,0.476978539,0.127697678
2098,0.470475731,0.461796562,0.118783454
2099,0.380257105,0.545059717,0.108068881
2100,0.393116818,0.431653008,0.067880151
2101,0.464936691,0.494901907,0.083121296
2102,0.545731052,0.523849368,0.069984555
2103,0.42724708,0.424654409,0.096246217
2104,0.404645852,0.415634919,0.080406494
2105,0.405854008,0.417325097,0.080396798
2106,0.467688836,0.489822642,0.039167922
2107,0.415440119,0.408535485,0.076692657
2108,0.709873273,0.433598967,0.119014007
2109,0.400551153,0.418419628,0.113393087
2110,0.483939744,0.514126137,0.085030555
2111,0.486305897,0.442708232,0.134868974
2112,0.388271025,0.391727957,0.080853839
2113,0.383747873,0.392316681,0.056358947
2114,0.389262533,0.415695862,0.092323038
2115,0.470836188,0.431371436,0.080099373
2116,0.378595881,0.387297671,0.063524597
2117,0.341946559,0.382312496,0.103953205
2118,0.405997903,0.443056755,0.112020385
2119,0.51700461,0.506038405,0.088217908
2120,0.429391965,0.402591903,0.06253274
2121,0.384733161,0.390609269,0.07277167
2122,0.389986311,0.396212941,0.110711224
2123,0.426601822,0.46484882,0.087480143
2124,0.433864202,0.408386347,0.040841584
2125,0.43734117,0.705253113,0.043476145
2126,0.398769863,0.407316167,0.063095391
2127,0.470142691,0.494525702,0.085679906
2128,0.52680118,0.488251697,0.116462818
2129,0.417708744,0.408672761,0.089041791
2130,0.410467515,0.409651276,0.08178517
2131,0.417622221,0.418667895,0.074182146
2132,0.502601207,0.495463714,0.129183071
2133,0.425145745,0.41427773,0.065673739
2134,0.58407652,0.404645594,0.05767761
2135,0.433808131,0.435012467,0.039768709
2136,0.541236203,0.535144125,0.082235178
2137,0.483853079,0.464530963,0.060667844
2138,0.417648953,0.414978314,0.035765529
2139,0.418673438,0.416702331,0.055129205
2140,0.436911007,0.437685792,0.088528033
2141,0.474900847,0.462937395,0.093101674
2142,0.362096851,0.376166348,0.096119073
2143,0.380674186,0.387613972,0.038779632
2144,0.457825878,0.453597688,0.094472275
2145,0.535226112,0.52121293,0.048105942
2146,0.417246454,0.414436845,0.060684443
2147,0.397865352,0.398000274,0.084529922
2148,0.399111447,0.3990905,0.048599229
2149,0.47264804,0.465880716,0.083490762
2150,0.39971353,0.401115609,0.071359861
2151,0.643942276,0.627908033,0.046461606
2152,0.402384224,0.39846294,0.070785029
2153,0.505204896,0.489935,0.128628835
2154,0.447560526,0.446610669,0.082074413
2155,0.383139823,0.383071643,0.102912013
2156,0.384839517,0.384305691,0.114830103
2157,0.409323022,0.401653824,0.069826311
2158,0.431386506,0.437875017,0.105014724
2159,0.38276335,0.341678177,0.051821649
2160,0.380380155,0.366846075,0.034686562
2161,0.45178974,0.436133062,0.092943843
2162,0.505423913,0.509272162,0.075829288
2163,0.397687146,0.407117153,0.022715337
2164,0.392895036,0.394757833,0.10533437
2165,0.40137295,0.401160359,0.11936032
2166,0.487486038,0.470897168,0.079927224
2167,0.402938214,0.414014756,0.058556936
2168,0.369755249,0.624301768,0.036828289
2169,0.433179183,0.418396551,0.107600976
2170,0.545447559,0.511075557,0.074374333
2171,0.457755969,0.481891423,0.097081349
2172,0.414823155,0.414945366,0.093169245
2173,0.419756311,0.417370493,0.070888733
2174,0.459112406,0.431581353,0.105342496
2175,0.455536,0.481826357,0.102365206
2176,0.50851954,0.381693675,0.090939003
2177,0.421145232,0.371975554,0.037032726
2178,0.490813574,0.456805182,0.103325659
2179,0.539399501,0.536607037,0.07383972
2180,0.425143289,0.43248876,0.097400572
2181,0.413732252,0.413475107,0.103368741
2182,0.416179455,0.415321683,0.050955547
2183,0.496182108,0.479208807,0.057791317
2184,0.415604069,0.417358022,0.106608845
2185,0.654430613,0.646003647,0.09677781
2186,0.411335103,0.415252247,0.071262998
2187,0.510869702,0.506048079,0.069949202
2188,0.473862051,0.457332365,0.101332577
2189,0.390451424,0.39485423,0.074174385
2190,0.388218703,0.394242595,0.097592923
2191,0.396129977,0.412656067,0.112251713
2192,0.467903027,0.436109816,0.107114281
2193,0.367709991,0.36765022,0.061521412
2194,0.306372941,0.379475034,0.057535267
2195,0.403649538,0.439766138,0.07342681
2196,0.513717749,0.499316137,0.126812919
2197,0.420806685,0.395950269,0.064915659
2198,0.37578705,0.384599308,0.051063445
2199,0.38020516,0.389219234,0.068007192
2200,0.412612303,0.461683687,0.036965904
2201,0.430368334,0.397820076,0.114926376
2202,0.366450254,0.636007477,0.123332829
2203,0.371835615,0.396552941,0.063827092
2204,0.446030174,0.489943975,0.027864439
2205,0.523251165,0.467132166,0.094293399
2206,0.410125836,0.395951798,0.103708805
2207,0.396631857,0.398985075,0.063076254
2208,0.404300802,0.410592841,0.093643232
2209,0.479023244,0.482584674,0.053565957
2210,0.421729424,0.398655426,0.075593344
2211,0.757543948,0.351381785,0.109773641
2212,0.421380878,0.435318581,0.06845927
2213,0.516242956,0.535778547,0.044599095
2214,0.509617297,0.455694874,0.099651159
2215,0.418743688,0.414763321,0.10066668
2216,0.417653955,0.418224862,0.112445097
2217,0.425638239,0.445581545,0.070752597
2218,0.506240054,0.459558033,0.060793972
2219,0.412053472,0.400222662,0.10222696
2220,0.367266653,0.404099007,0.09685791
2221,0.437631712,0.465198759,0.089795577
2222,0.546098302,0.526841248,0.058897754
2223,0.455913144,0.420436559,0.026843083
2224,0.404553778,0.405845537,0.092434448
2225,0.404705667,0.407367655,0.095895214
2226,0.431861427,0.47506521,0.091954914
2227,0.444313291,0.407375996,0.048765385
2228,0.3827698,0.633601494,0.078942609
2229,0.379970747,0.405044516,0.014285975
2230,0.447222969,0.495095006,0.079895218
2231,0.510137453,0.456464726,0.062761972
2232,0.394191335,0.386961645,0.064300838
2233,0.381024106,0.386459999,0.116428926
2234,0.38451124,0.398409127,0.129881156
2235,0.465716963,0.448580866,0.105904819
2236,0.38622662,0.345081137,0.084459909
2237,0.525515595,0.327028789,0.065219789
2238,0.396450805,0.416835151,0.106310354
2239,0.506139216,0.507554319,0.075435679
2240,0.434205718,0.409269075,0.115398855
2241,0.383649378,0.384728133,0.024574951
2242,0.388915364,0.39025849,0.086991037
2243,0.427931038,0.437561089,0.074538705
2244,0.425659411,0.418541693,0.121094516
2245,0.541089441,0.545958969,0.049205429
2246,0.404119003,0.404460196,0.096164851
2247,0.487519341,0.474799298,0.110965761
2248,0.501043552,0.507414448,0.074721828
2249,0.409824352,0.413796922,0.037412463
2250,0.411307925,0.410425997,0.103790577
2251,0.424883602,0.417701277,0.040503794
2252,0.487309334,0.496127095,0.042529771
2253,0.376492288,0.421040259,0.038956166
2254,0.379908828,0.487311607,0.079158225
2255,0.467099202,0.436649784,0.127605182
2256,0.549859412,0.534831354,0.066660883
2257,0.434884658,0.464507884,0.111729608
2258,0.418399365,0.418274631,0.072445279
2259,0.421852235,0.420056596,0.096725955
2260,0.498458312,0.450574274,0.127639804
2261,0.422893763,0.447310695,0.057298767
2262,0.579512032,0.506596564,0.065410369
2263,0.422922772,0.416068591,0.088150729
2264,0.52706379,0.480966501,0.100729818
2265,0.466972024,0.499491812,0.112872268
2266,0.398451829,0.407311899,0.108414969
2267,0.397572984,0.40153947,0.058514594
2268,0.414685871,0.405918418,0.089374966
2269,0.451387344,0.470022925,0.083178797
2270,0.344520715,0.376944412,0.084060375
2271,0.354946488,0.324773685,0.092498203
2272,0.431716919,0.42177522,0.057162016
2273,0.516896994,0.512408869,0.034819732
2274,0.399329897,0.41378826,0.098468783
2275,0.377792642,0.385263545,0.041572698
2276,0.381548507,0.388068499,0.109127537
2277,0.447410827,0.436876931,0.064494108
2278,0.397095935,0.406574043,0.120054801
2279,0.709039098,0.631731757,0.100683133
2280,0.389855132,0.39485861,0.039124637
2281,0.478377199,0.468696813,0.085183964
2282,0.486346439,0.488990243,0.073647973
2283,0.391754389,0.398202094,0.040004963
2284,0.391774048,0.396017218,0.10098534
2285,0.401424268,0.403881842,0.108758558
2286,0.488105241,0.482622167,0.072278896
2287,0.400253709,0.407180206,0.086018496
2288,0.385412982,0.471915867,0.129617632
2289,0.4291371,0.423394191,0.038275188
2290,0.542377154,0.523898995,0.141090446
2291,0.467275394,0.465769623,0.081024839
2292,0.413066798,0.413110842,0.106064104
2293,0.4174765,0.416947412,0.067141555
2294,0.441200415,0.437932002,0.142741552
2295,0.477848154,0.469536935,0.044831077
2296,0.373719843,0.380586877,0.111592945
2297,0.380923877,0.394780022,0.052928561
2298,0.464385826,0.464088709,0.080580958
2299,0.558544628,0.535132663,0.088547163
2300,0.442783501,0.429470594,0.093665998
2301,0.412619104,0.413318115,0.096057924
2302,0.414157089,0.415297284,0.026167673
2303,0.459262706,0.481149548,0.076902671
2304,0.439824962,0.416787135,0.077446253
2305,0.490838399,0.654462344,0.059798778
2306,0.401556744,0.41202573,0.095118349
2307,0.465775413,0.500979762,0.102676911
2308,0.523722982,0.464808672,0.079429513
2309,0.404679335,0.393080981,0.073308928
2310,0.387918869,0.391605421,0.068928049
2311,0.38991677,0.401734645,0.082334783
2312,0.459992445,0.454119036,0.054388059
2313,0.398026294,0.353639574,0.08441334
2314,0.726906665,0.324456071,0.099013628
2315,0.394701971,0.417407631,0.111670437
2316,0.482867884,0.509499216,0.098185137
2317,0.481557668,0.412122782,0.086458953
2318,0.387675042,0.382408259,0.104133599
2319,0.386227315,0.386539615,0.06385581
2320,0.39492298,0.426083226,0.057580572
2321,0.477518326,0.420149107,0.075683693
2322,0.379631918,0.446719603,0.076145072
2323,0.339021436,0.393148758,0.115549653
2324,0.417246283,0.456377502,0.069965865
2325,0.528516097,0.510375789,0.092744836
2326,0.434006869,0.410434629,0.077985087
2327,0.399493623,0.402571001,0.074032655
2328,0.406119102,0.409424566,0.1036784
2329,0.459283676,0.482232458,0.04641786
2330,0.433149387,0.420265079,0.066813846
2331,0.682682137,0.693958106,0.035981762
2332,0.422259092,0.431171964,0.074040954
2333,0.512390342,0.522893862,0.084415832
2334,0.504346937,0.486655563,0.065139515
2335,0.420298968,0.422145561,0.058418219
2336,0.420578762,0.423539045,0.074905058
2337,0.433889356,0.439896355,0.022767341
2338,0.487050625,0.475194236,0.129841385
2339,0.373153141,0.383428167,0.074797957
2340,0.382843378,0.400688951,0.078498305
2341,0.463463439,0.466343547,0.122009446
2342,0.540750046,0.527799746,0.068295152
2343,0.423455959,0.422418022,0.08293807
2344,0.406005338,0.409444413,0.108765954
2345,0.40759647,0.410992237,0.11944652
2346,0.484420196,0.482322991,0.084231124
2347,0.404905801,0.406429598,0.086242755
2348,0.53251187,0.418922046,0.049572153
2349,0.410945578,0.411945176,0.062468699
2350,0.516133462,0.508195273,0.067880257
2351,0.444871736,0.434026533,0.072973482
2352,0.385329333,0.386306877,0.114165443
2353,0.386173984,0.387466278,0.114603109
2354,0.41361474,0.414412611,0.038863519
2355,0.426146741,0.422247178,0.123122373
2356,0.404481021,0.408758271,0.065385741
2357,0.380566066,0.378044786,0.060067139
2358,0.450403406,0.439318789,0.077682882
2359,0.498940219,0.495614549,0.085409478
2360,0.391150928,0.393993857,0.086888166
2361,0.385776208,0.385207881,0.084470895
2362,0.393431086,0.391142156,0.109507393
2363,0.47961924,0.464558054,0.116085993
2364,0.395098196,0.402449334,0.099482397
2365,0.377358224,0.664606952,0.053325452
2366,0.422883494,0.411238571,0.08692904
2367,0.535327092,0.504678094,0.045618516
2368,0.449345354,0.47588042,0.084182323
2369,0.407184803,0.408942674,0.071946046
2370,0.413129155,0.411964037,0.09428822
2371,0.454361977,0.425790718,0.060868767
2372,0.44923322,0.482984999,0.120803374
2373,0.538107739,0.387479271,0.092445436
2374,0.419390918,0.356057142,0.116930871
2375,0.492714771,0.452676521,0.075861171
2376,0.532948352,0.541285283,0.079633246
2377,0.424551621,0.441004185,0.09991388
2378,0.416754938,0.417321317,0.089318704
2379,0.421181182,0.419966668,0.066785024
2380,0.504163658,0.475388182,0.074696278
2381,0.419989959,0.429559136,0.120360453
2382,0.517762093,0.715862078,0.104585765
2383,0.421854362,0.41580357,0.098833529
2384,0.527076767,0.496386976,0.041089008
2385,0.471407592,0.483867526,0.1140663
2386,0.397386953,0.402175564,0.07565066
2387,0.395854054,0.398820467,0.046682254
2388,0.405952028,0.404733483,0.066748409
2389,0.469557951,0.468014769,0.119387116
2390,0.364386819,0.375060428,0.063563084
2391,0.304650005,0.319239518,0.076305277
2392,0.413395711,0.415572539,0.110945423
2393,0.521282562,0.511865097,0.041202602
2394,0.424597832,0.421693201,0.095512416
2395,0.377834603,0.382906082,0.081696453
2396,0.380617251,0.38549993,0.103004483
2397,0.408056656,0.414667772,0.06385688
2398,0.435702135,0.426983611,0.085119848
2399,0.33704924,0.37109249,0.085611082
2400,0.346805288,0.373491343,0.057124682
2401,0.430451877,0.437147813,0.050630426
2402,0.523369089,0.510507327,0.096370607
2403,0.410299209,0.407436279,0.046668461
2404,0.389583924,0.392925717,0.116058871
2405,0.396522741,0.399255954,0.020465641
2406,0.458153918,0.460351544,0.053306178
2407,0.423040232,0.419570095,0.108305115
2408,0.650766165,0.675747474,0.07248266
2409,0.414871382,0.420028442,0.092951975
2410,0.497268804,0.499298903,0.052090367
2411,0.519396402,0.505167317,0.062278742
2412,0.419120469,0.420943922,0.069805925
2413,0.41679059,0.420097397,0.119722044
2414,0.424373952,0.428300748,0.062154018
2415,0.509058723,0.499385808,0.062845605
2416,0.419261976,0.413414173,0.107253265
2417,0.404023307,0.355697206,0.087298699
2418,0.441661564,0.44413216,0.111849067
2419,0.550690904,0.537839879,0.090214312
2420,0.463866362,0.443063925,0.07093077
2421,0.413379129,0.413026145,0.08315926
2422,0.414242624,0.414582227,0.0330171
2423,0.444919309,0.464760548,0.10571406
2424,0.448765912,0.423494885,0.021773463
2425,0.438038422,0.703869005,0.113390169
2426,0.401033422,0.409481767,0.058107894
2427,0.466850834,0.491575124,0.096934532
2428,0.515607851,0.470772775,0.037090485
2429,0.401166104,0.394064191,0.070287932
2430,0.389278898,0.392078841,0.117228088
2431,0.391993891,0.402299455,0.086819381
2432,0.473625004,0.450509081,0.108619637
2433,0.389318034,0.348679056,0.060835544
2434,0.482864297,0.346387123,0.103070157
2435,0.39830268,0.425435742,0.048655461
2436,0.506766559,0.50621189,0.07211571
2437,0.43528929,0.402669844,0.047789424
2438,0.37989271,0.383885809,0.103702212
2439,0.383613146,0.388286109,0.086754789
2440,0.413532719,0.449808014,0.08278437
2441,0.431050192,0.402555206,0.115516961
2442,0.394664253,0.698109839,0.064884601
2443,0.384898816,0.401174846,0.057212509
2444,0.457463308,0.487245301,0.104077838
2445,0.511282843,0.478644614,0.095455985
2446,0.404635275,0.401817559,0.129509196
2447,0.400543218,0.40381726,0.038489332
2448,0.409386459,0.415367021,0.107743043
2449,0.495237591,0.483352452,0.085276741
2450,0.409858109,0.394990699,0.09276095
2451,0.365311331,0.341534363,0.091396821
2452,0.438391264,0.442650648,0.100052148
2453,0.548356432,0.537840969,0.08881523
2454,0.452284623,0.443509821,0.08478905
2455,0.416355298,0.416326415,0.104491344
2456,0.420527554,0.420279664,0.117338768
2457,0.473086232,0.469678627,0.062395888
2458,0.439409389,0.436709966,0.065735454
2459,0.714851405,0.68305157,0.074305349
2460,0.419312504,0.422691808,0.040269952
2461,0.505988494,0.499246135,0.126603612
2462,0.500640033,0.498284008,0.074119431
2463,0.408321263,0.411864063,0.071483288
2464,0.404635038,0.408067542,0.087835295
2465,0.411589456,0.413681976,0.087448835
2466,0.479948372,0.476681505,0.117716279
2467,0.372414056,0.381350585,0.065108563
2468,0.317136057,0.329511079,0.077979066
2469,0.424320695,0.426299881,0.060149992
2470,0.527123836,0.519625417,0.094449299
2471,0.419212292,0.425211785,0.12703014
2472,0.382222138,0.388762822,0.035042288
2473,0.3840209,0.39012088,0.117737853
2474,0.427178208,0.424563286,0.088427881
2475,0.412009954,0.419520219,0.062042041
2476,0.503353181,0.450376245,0.082717294
2477,0.382886424,0.383577923,0.053738592
2478,0.453851436,0.443896837,0.038203276
2479,0.502594087,0.503012863,0.114584204
2480,0.391359864,0.399234648,0.053191606
2481,0.384024978,0.387994301,0.11184784
2482,0.391015372,0.393520143,0.097358566
2483,0.476274154,0.459534602,0.050131554
2484,0.400695886,0.409452512,0.055938565
2485,0.643039563,0.705071121,0.089429835
2486,0.413738761,0.409035607,0.046416188
2487,0.520232192,0.490372463,0.106852019
2488,0.480102371,0.499063597,0.053300932
2489,0.408641148,0.412511684,0.07640832
2490,0.412306078,0.411509169,0.02372126
2491,0.428692796,0.419153219,0.030120019
2492,0.489352597,0.498133963,0.112592311
2493,0.381355505,0.420496296,0.082964862
2494,0.352854348,0.486949357,0.066295867
2495,0.457421042,0.436391905,0.12767117
2496,0.557866611,0.535438752,0.063547562
2497,0.446782134,0.471721207,0.131819916
2498,0.417636718,0.418844602,0.093851612
2499,0.420387324,0.42011649,0.082067711
2500,0.474192124,0.440802218,0.072292122
2501,0.437842069,0.463163735,0.136377947
2502,0.667676142,0.386986431,0.09671239
2503,0.415612498,0.39855895,0.074087562
2504,0.491717882,0.460502248,0.113471795
2505,0.511889081,0.519416281,0.057468754
2506,0.404599625,0.413724252,0.022084558
2507,0.396721855,0.399975092,0.045059423
2508,0.39961034,0.401430176,0.066357871
2509,0.48210428,0.471862748,0.065025839
2510,0.393389911,0.399081349,0.046023024
2511,0.438536538,0.514698838,0.138701202
2512,0.400497003,0.403662204,0.098140894
2513,0.50847464,0.498999138,0.085966608
2514,0.44145468,0.438388884,0.138944301
2515,0.377680401,0.384272219,0.081343157
2516,0.379610939,0.386168521,0.038324355
2517,0.398535711,0.409020654,0.127835849
2518,0.445236542,0.430017848,0.044429067
2519,0.330901216,0.372450119,0.053909589
2520,0.333095781,0.381119273,0.110274175
2521,0.427473292,0.444303348,0.126978786
2522,0.523024908,0.502484449,0.107984657
2523,0.411151196,0.402582712,0.118188893
2524,0.390625907,0.394990596,0.092677362
2525,0.397612399,0.401844224,0.054145955
2526,0.464437221,0.478167343,0.034935494
2527,0.419300668,0.410161411,0.112970613
2528,0.737006982,0.545461666,0.05020178
2529,0.419422875,0.42447533,0.087170762
2530,0.513953997,0.523334662,0.051674857
2531,0.502358113,0.466589633,0.036246569
2532,0.41834259,0.415342596,0.118013534
2533,0.419651865,0.419055341,0.080836983
2534,0.432786832,0.443423353,0.096854476
2535,0.495266117,0.463057385,0.112924167
2536,0.385222476,0.411091826,0.060300507
2537,0.364180125,0.415387628,0.068454481
2538,0.46138485,0.476876044,0.090547543
2539,0.553225842,0.526183777,0.101262948
2540,0.437736805,0.424973139,0.054426485
2541,0.414228859,0.415256777,0.06208001
2542,0.416082863,0.418075466,0.116383663
2543,0.482848924,0.490602027,0.07370083
2544,0.420100158,0.411666594,0.04926715
2545,0.726564373,0.409153358,0.037700876
2546,0.408658858,0.423088517,0.084234063
2547,0.504835944,0.518796067,0.061912066
2548,0.472662495,0.439501123,0.07042984
2549,0.390356832,0.394220766,0.097274696
2550,0.388467972,0.394578157,0.064537877
2551,0.398240288,0.425426182,0.075817392
2552,0.459055063,0.42108383,0.035885373
2553,0.348987964,0.472896595,0.092465117
2554,0.315252497,0.387814686,0.079447983
2555,0.418753618,0.450202952,0.08131116
2556,0.518607575,0.49038933,0.085587249
2557,0.408041119,0.391337208,0.045211237
2558,0.379351591,0.384317089,0.050073026
2559,0.384036795,0.389490237,0.064669722
2560,0.439135639,0.466405427,0.124521
2561,0.409296937,0.394471648,0.07123012
2562,0.629050974,0.528742296,0.067671417
2563,0.396739193,0.403669801,0.119686379
2564,0.480451763,0.501810766,0.104448427
2565,0.499009886,0.461463272,0.095262443
2566,0.402541794,0.397943213,0.095622954
2567,0.402076307,0.401880379,0.067680321
2568,0.412255235,0.41632722,0.023231472
2569,0.49594362,0.477736616,0.065688522
2570,0.405950113,0.387583198,0.092891382
2571,0.356711237,0.340395865,0.099173431
2572,0.440717284,0.442477596,0.089995576
2573,0.551007806,0.540466915,0.05960969
2574,0.455937838,0.451668633,0.080496365
2575,0.417166958,0.415969245,0.074787493
2576,0.421144897,0.419468865,0.100268948
2577,0.465857832,0.450673719,0.080659998
2578,0.447163939,0.456964855,0.079167737
2579,0.60293789,0.417497333,0.047780279
2580,0.420890078,0.406268628,0.050706788
2581,0.496391626,0.466147991,0.059097677
2582,0.521393616,0.527019088,0.088845892
2583,0.413823115,0.420980972,0.088811379
2584,0.406326113,0.405467117,0.103530366
2585,0.409591382,0.406878958,0.104680723
2586,0.490715818,0.471794421,0.109312777
2587,0.397365167,0.409329298,0.073298241
2588,0.38397689,0.693155578,0.097904523
2589,0.41386808,0.404286691,0.060048934
2590,0.522113312,0.489637226,0.100839074
2591,0.441440472,0.464779404,0.028941149
2592,0.383797292,0.38869948,0.096833341
2593,0.384722609,0.38719069,0.101314562
2594,0.406958389,0.396413443,0.099854898
2595,0.43850851,0.455383089,0.076276242
2596,0.334890221,0.359918375,0.028706262
2597,0.350859061,0.316563968,0.05464532
2598,0.430061744,0.41615368,0.143060739
2599,0.517096129,0.509089596,0.059097961
2600,0.402073598,0.412847987,0.037234268
2601,0.384193092,0.387185856,0.117316839
2602,0.39030598,0.392457483,0.036166029
2603,0.459104662,0.443238981,0.092895812
2604,0.409177987,0.415979288,0.055095635
2605,0.733413862,0.626500713,0.0511998
2606,0.411126493,0.405524085,0.118216835
2607,0.505363499,0.482531808,0.110706656
2608,0.496545498,0.496143695,0.053645028
2609,0.412054758,0.41092119,0.13159286
2610,0.413730789,0.410692894,0.12269201
2611,0.426172279,0.41950986,0.086517754
2612,0.49744068,0.4938655,0.069399649
2613,0.395600687,0.411410543,0.084949031
2614,0.345047332,0.363045303,0.067094525
2615,0.45607485,0.442528169,0.114885862
2616,0.558196419,0.540447422,0.090561289
2617,0.448703861,0.452900404,0.070803152
2618,0.419046368,0.417169486,0.114898453
2619,0.421635835,0.419331574,0.093469326
2620,0.478375586,0.458250001,0.054571504
2621,0.435399116,0.440471252,0.049324427
2622,0.72386267,0.573766179,0.121082088
2623,0.414178908,0.416582976,0.048859944
2624,0.498983958,0.485982428,0.036277892
2625,0.499668119,0.497682825,0.051726989
2626,0.40121895,0.406408996,0.088558074
2627,0.395855642,0.400943298,0.058839858
2628,0.400377774,0.405136775,0.095882566
2629,0.479145759,0.47169947,0.123121204
2630,0.380983739,0.380811876,0.129966511
2631,0.333438821,0.324572334,0.105991808
2632,0.406248406,0.41630485,0.091208607
2633,0.515123932,0.508269365,0.064436638
2634,0.426663788,0.411489583,0.035901482
2635,0.37713801,0.383388297,0.065359342
2636,0.380156682,0.386308623,0.1291634
2637,0.409062456,0.438754763,0.103464769
2638,0.428309629,0.401222041,0.117729608
2639,0.367653155,0.677916295,0.057501423
2640,0.372277201,0.39179734,0.012906555
2641,0.444043454,0.475413272,0.031126329
2642,0.516671497,0.469046345,0.110158141
2643,0.403778516,0.392313255,0.042665285
2644,0.392777707,0.394366665,0.071843039
2645,0.400034823,0.406212245,0.05920114
2646,0.481971852,0.471469687,0.097470054
2647,0.41224771,0.380288335,0.100474604
2648,0.649159966,0.339509088,0.035611061
2649,0.423821796,0.440432787,0.120871895
2650,0.531748154,0.536206778,0.061697916
2651,0.480491407,0.442144323,0.109393305
2652,0.416708397,0.414364363,0.105069845
2653,0.420390409,0.419162473,0.127607282
2654,0.443422564,0.463018713,0.027146811
2655,0.475256339,0.445496189,0.044838001
2656,0.390886275,0.556754289,0.086555378
2657,0.409504564,0.420102961,0.054359076
2658,0.47881001,0.484241707,0.046460452
2659,0.547597745,0.522262149,0.047671346
2660,0.430447401,0.421300556,0.093199757
2661,0.415095277,0.412362529,0.058936587
2662,0.417272846,0.414951926,0.119580143
2663,0.493349373,0.487444538,0.093592961
2664,0.417289305,0.414182872,0.104324729
2665,0.653638477,0.621469288,0.127158242
2666,0.4144253,0.412818302,0.088466499
2667,0.513956672,0.503111256,0.054769966
2668,0.4726049,0.46519678,0.11118479
2669,0.392453946,0.393537956,0.054002215
2670,0.39059916,0.391967524,0.095599959
2671,0.399921091,0.400722285,0.111639133
2672,0.46373623,0.457970628,0.078237959
2673,0.3471623,0.36149946,0.035528541
2674,0.308576049,0.315950162,0.087537641
2675,0.416342058,0.414007525,0.096748283
2676,0.520300916,0.506649045,0.028024991
2677,0.413883682,0.410352248,0.059606733
2678,0.380394063,0.382423611,0.025801528
2679,0.384882663,0.386656088,0.14272637
2680,0.433010238,0.433925136,0.061999927
2681,0.415478502,0.410531474,0.060185513
2682,0.54264272,0.591173513,0.048214739
2683,0.39792494,0.397434314,0.048488638
2684,0.477409746,0.472447603,0.099079552
2685,0.504721394,0.491238494,0.087011658
2686,0.40529277,0.403491219,0.050140882
2687,0.403924847,0.403006733,0.101471998
2688,0.413788422,0.411811531,0.141864718
2689,0.497301132,0.488671433,0.117394645
2690,0.407739158,0.40893649,0.102028171
2691,0.348075502,0.373483784,0.047280169
2692,0.442167859,0.437464987,0.090251527
2693,0.551760848,0.537861253,0.104756721
2694,0.454369693,0.459438861,0.110158302
2695,0.417704783,0.417619755,0.062024617
2696,0.421703351,0.420838781,0.074732863
2697,0.470149281,0.44985332,0.071845564
2698,0.444498193,0.457722622,0.079590291
2699,0.648009448,0.428860564,0.069440299
2700,0.419891251,0.413207765,0.106840612
2701,0.497513282,0.472831756,0.095130563
2702,0.519622189,0.525750944,0.092127997
2703,0.412635083,0.42035786,0.071949921
2704,0.404990841,0.407527205,0.08089062
2705,0.408212679,0.408751695,0.040249513
2706,0.490491605,0.477660949,0.084867545
2707,0.400232198,0.408274055,0.048884782
2708,0.438011821,0.627348012,0.084629364
2709,0.409026075,0.409548201,0.061142046
2710,0.516304508,0.500427261,0.055492824
2711,0.44797012,0.454284069,0.120709747
2712,0.382736436,0.389771798,0.064896826
2713,0.3834419,0.389589187,0.091436599
2714,0.399772418,0.40576881,0.114770863
2715,0.44895993,0.441128816,0.119903152
2716,0.326419954,0.347682535,0.061289879
2717,0.323441283,0.36441146,0.091733491
2718,0.422948917,0.433914073,0.088901947
2719,0.520130376,0.501081272,0.021356846
2720,0.40844221,0.3993755,0.056242355
2721,0.384990361,0.389338881,0.043973562
2722,0.390913698,0.395395977,0.067388271
2723,0.455155676,0.471030604,0.058599144
2724,0.411732122,0.402008357,0.03583652
2725,0.715244217,0.475168874,0.125723707
2726,0.409460516,0.41576789,0.094870238
2727,0.503954361,0.516619337,0.116365621
2728,0.492515061,0.452832386,0.091137081
2729,0.41056572,0.407081437,0.106298835
2730,0.412959118,0.412124444,0.095135733
2731,0.42764121,0.44193977,0.047827861
2732,0.48885621,0.452455292,0.112397116
2733,0.378383435,0.448298732,0.038748972
2734,0.370768168,0.41530828,0.108213355
2735,0.465497716,0.476904224,0.126297618
2736,0.557709924,0.530875808,0.103583453
2737,0.44307482,0.428167256,0.113955299
2738,0.420027001,0.417300287,0.064137218
2739,0.422853666,0.420572009,0.04941288
2740,0.488541766,0.490704053,0.098511785
2741,0.43096486,0.423049913,0.14109559
2742,0.757481907,0.66933428,0.087008593
2743,0.415759022,0.419275813,0.106446334
2744,0.506705252,0.506587394,0.038449536
2745,0.495339848,0.480907247,0.101080614
2746,0.400479558,0.401603626,0.045613194
2747,0.395921835,0.398712668,0.126021074
2748,0.400924463,0.404360211,0.126912333
2749,0.479810782,0.471555465,0.037194363
2750,0.385250981,0.383931207,0.128389773
2751,0.349205516,0.334602101,0.089532035
2752,0.406853568,0.410429366,0.090701105
2753,0.516068017,0.50821348,0.143409262
2754,0.430265455,0.423714138,0.060926509
2755,0.378509858,0.382842961,0.091605582
2756,0.381143357,0.385321151,0.106945312
2757,0.40910912,0.416822167,0.075371835
2758,0.430762977,0.420390011,0.045204311
2759,0.356274931,0.417673656,0.055282432
2760,0.36925578,0.385077021,0.043638904
2761,0.442630362,0.449407394,0.064274706
2762,0.510988393,0.49541981,0.065447944
2763,0.400024056,0.398572066,0.040992283
2764,0.392141516,0.394278216,0.105786121
2765,0.400012355,0.401817723,0.052531915
2766,0.486007901,0.480286308,0.096497646
2767,0.4069133,0.40612703,0.086984337
2768,0.448582159,0.420561209,0.0848807
2769,0.427490369,0.426673751,0.131318289
2770,0.539633361,0.528024119,0.080111236
2771,0.45769193,0.459802278,0.120688903
2772,0.413829863,0.414094202,0.060835399
2773,0.418816167,0.418267764,0.097027609
2774,0.461827856,0.444955915,0.092078927
2775,0.448473816,0.461462138,0.082317175
2776,0.608865077,0.410495457,0.068469533
2777,0.417386121,0.412701484,0.041933754
2778,0.495013923,0.4726123,0.146515779
2779,0.520149505,0.536270665,0.105587894
2780,0.416111023,0.429354687,0.046625671
2781,0.40969629,0.413442118,0.088970832
2782,0.413930036,0.415286217,0.091567916
2783,0.496467132,0.476650005,0.101401274
2784,0.40618053,0.421255593,0.064267627
2785,0.414434074,0.716863654,0.066048821
2786,0.420110488,0.412348256,0.078773583
2787,0.527358865,0.490633817,0.056772146
2788,0.456593617,0.485477156,0.103365863
2789,0.390544493,0.398033053,0.09928045
2790,0.390001821,0.393490214,0.078606619
2791,0.404324585,0.398148446,0.083890561
2792,0.456360795,0.469523971,0.040993623
2793,0.341917537,0.384418209,0.105528392
2794,0.312039183,0.346911997,0.078105087
2795,0.416846862,0.405697479,0.134259611
2796,0.518646736,0.502865548,0.104666906
2797,0.40945345,0.416875505,0.06209646
2798,0.378651817,0.382782384,0.045575333
2799,0.383335395,0.386846967,0.113784033
2800,0.434333143,0.432083159,0.072568909
2801,0.412721824,0.409703557,0.063539795
2802,0.555666919,0.626221135,0.082381163
2803,0.398747904,0.401095031,0.109392887
2804,0.478717131,0.482040211,0.071288769
2805,0.502455829,0.47701586,0.076390857
2806,0.404960651,0.40298988,0.043302337
2807,0.404151699,0.405767737,0.107300599
2808,0.414284551,0.421093314,0.068024027
2809,0.495965236,0.469379426,0.081558908
2810,0.403112294,0.373530499,0.084612696
2811,0.339547731,0.391970662,0.035506588
2812,0.444057988,0.463065194,0.078841496
2813,0.553197419,0.535836389,0.051133874
2814,0.454046623,0.432768677,0.040996955
2815,0.417909371,0.419092154,0.086992017
2816,0.421824901,0.423276148,0.112364506
2817,0.468230332,0.491346951,0.087927547
2818,0.447498704,0.428700685,0.102129058
2819,0.60263955,0.667712601,0.051397596
2820,0.414297221,0.422670908,0.051163761
2821,0.486138586,0.510974093,0.071731858
2822,0.523946843,0.484251872,0.101276438
2823,0.411927587,0.407374055,0.128059252
2824,0.401313163,0.405097574,0.059030261
2825,0.40371934,0.411591136,0.069391949
2826,0.483775224,0.47670188,0.145158164
2827,0.404336504,0.384606882,0.047299549
2828,0.666205551,0.328419269,0.072255608
2829,0.402744324,0.415192796,0.118568156
2830,0.501378409,0.511529057,0.072467444
2831,0.46854248,0.425096531,0.074743079
2832,0.383945318,0.383656504,0.036054895
2833,0.382189251,0.385304258,0.051377769
2834,0.390795211,0.4152744,0.106008805
2835,0.465795542,0.420604674,0.055487806
2836,0.368300365,0.396295129,0.077077564
2837,0.310498178,0.377513802,0.095258716
2838,0.406483241,0.439968717,0.055992312
2839,0.514396882,0.491972028,0.116015927
2840,0.415071695,0.393015013,0.057479706
2841,0.381922849,0.386633365,0.103695266
2842,0.387826693,0.393366906,0.115970705
2843,0.442168191,0.471068631,0.074441294
2844,0.413960988,0.398116932,0.030039081
2845,0.669831133,0.431741464,0.108374624
2846,0.411460769,0.417351316,0.104127364
2847,0.503473533,0.518678205,0.102330934
2848,0.494216675,0.450470169,0.088754524
2849,0.412373202,0.40672845,0.105567934
2850,0.414951814,0.411945416,0.069978743
2851,0.431913195,0.443614293,0.085071621
2852,0.482409647,0.45113518,0.067360367
2853,0.376957671,0.453090485,0.122246655
2854,0.39939103,0.41397322,0.099868073
2855,0.47497408,0.475332553,0.043923103
2856,0.549958448,0.532030161,0.070380595
2857,0.433826923,0.428409976,0.04982121
2858,0.41952688,0.415991142,0.016713832
2859,0.422917152,0.419290195,0.089679858
2860,0.501908794,0.485949685,0.037102521
2861,0.423443602,0.424932371,0.036637563
2862,0.580595502,0.721384016,0.084473425
2863,0.421106107,0.412432254,0.103158896
2864,0.525018797,0.492952838,0.0339445
2865,0.469157499,0.490514751,0.13266938
2866,0.397488981,0.400489454,0.056027001
2867,0.396349145,0.395071969,0.112746414
2868,0.409857427,0.398286688,0.028252414
2869,0.458987717,0.473416513,0.06746081
2870,0.343606131,0.393212367,0.055307977
2871,0.33063231,0.52028443,0.025682526
2872,0.423450911,0.39834779,0.074402525
2873,0.517761556,0.493512043,0.084012289
2874,0.403317556,0.441890352,0.113416519
2875,0.377381847,0.380917304,0.07278256
2876,0.380783191,0.382490502,0.096628692
2877,0.441232776,0.398839821,0.050945896
2878,0.398864227,0.441526867,0.104891902
2879,0.685988149,0.343822922,0.073373859
2880,0.391968176,0.343066928,0.050290499
2881,0.482809666,0.426756174,0.096232836
2882,0.478778226,0.505149747,0.101925708
2883,0.392123534,0.40438782,0.064274332
2884,0.393956114,0.392446169,0.07825958
2885,0.407141236,0.399220294,0.102171241
2886,0.477673268,0.472788988,0.045080947
2887,0.373902694,0.408898592,0.061853181
2888,0.33789717,0.541883323,0.069677308
2889,0.447648561,0.42155109,0.087056599
2890,0.550122147,0.520840377,0.050280434
2891,0.441382281,0.462689193,0.072340027
2892,0.415743417,0.412955647,0.104484912
2893,0.42112162,0.417121071,0.081314064
2894,0.481472532,0.444479062,0.091827704
2895,0.440201477,0.456817249,0.061467715
2896,0.728177869,0.445913195,0.072462881
2897,0.420553506,0.415046929,0.081505414
2898,0.504019901,0.475907861,0.084217831
2899,0.520625972,0.525907185,0.112040066
2900,0.416019965,0.423737682,0.12032689
2901,0.409936423,0.412592359,0.032658282
2902,0.413738783,0.414987831,0.087245167
2903,0.497459679,0.485904398,0.096338521
2904,0.408623204,0.414334402,0.061409411
2905,0.517986093,0.609001648,0.051237653
2906,0.412043294,0.414161824,0.130340251
2907,0.516563337,0.505151523,0.090676534
2908,0.465208295,0.462222603,0.081872151
2909,0.388172201,0.39345114,0.104501147
2910,0.386691416,0.392246703,0.082480133
2911,0.395696509,0.403248689,0.102339803
2912,0.466636919,0.453036268,0.083257262
2913,0.361971819,0.352323961,0.107719066
2914,0.306795821,0.328183663,0.119987392
2915,0.402329229,0.419440101,0.070554093
2916,0.511795965,0.503197696,0.126059394
2917,0.418449823,0.401174176,0.054549284
2918,0.374775813,0.382848351,0.087917514
2919,0.379430122,0.387378827,0.110422091
2920,0.414259608,0.453346895,0.071873674
2921,0.426028201,0.398404505,0.045750728
2922,0.388430793,0.651302923,0.053643054
2923,0.379075496,0.405000775,0.053811046
2924,0.450705603,0.500536314,0.083134119
2925,0.516108286,0.455896922,0.116807016
2926,0.405991778,0.400693292,0.063732528
2927,0.398306015,0.405492017,0.092974738
2928,0.406341636,0.431994211,0.074232414
2929,0.491486653,0.449312012,0.085766831
2930,0.41542891,0.439245182,0.064647202
2931,0.56736872,0.413097934,0.090806947
2932,0.430079078,0.47659356,0.08946256
2933,0.539364425,0.522494182,0.112035073
2934,0.477753791,0.425189275,0.116098023
2935,0.417320599,0.418570149,0.066807376
2936,0.420208188,0.42363492,0.112644814
2937,0.443704707,0.498985364,0.100041968
2938,0.471638348,0.423426835,0.071990346
2939,0.388721465,0.46150298,0.076584731
2940,0.404222294,0.430876997,0.092268179
2941,0.472563385,0.527481374,0.12993659
2942,0.540362588,0.469766016,0.080695405
2943,0.422080736,0.407920505,0.058176351
2944,0.406432253,0.407276379,0.052947544
2945,0.408039844,0.418887197,0.084851266
2946,0.485423667,0.468009004,0.093659398
2947,0.406380135,0.366762117,0.079439651
2948,0.598471927,0.328421376,0.070687724
2949,0.411933954,0.423973287,0.089106484
2950,0.515184665,0.516442025,0.090814368
2951,0.452507236,0.41974472,0.06933005
2952,0.387487236,0.384712534,0.077777326
2953,0.38779125,0.386435111,0.044252061
2954,0.410814515,0.419587961,0.064226027
2955,0.433389545,0.419901803,0.118085895
2956,0.368646406,0.400032525,0.044079371
2957,0.37489723,0.380029103,0.087044262
2958,0.444544204,0.442248799,0.04448747
2959,0.50296069,0.498843083,0.055978315
2960,0.392747948,0.396408865,0.076483836
2961,0.385626591,0.387498125,0.113498847
2962,0.39301573,0.393567924,0.134987829
2963,0.479089399,0.468313547,0.108409469
2964,0.396545331,0.403191759,0.093115305
2965,0.400663206,0.629797318,0.045424807
2966,0.420922701,0.412654102,0.124664572
2967,0.533910688,0.508151948,0.037032447
2968,0.451221111,0.471284008,0.096200196
2969,0.407320308,0.408892458,0.117225242
2970,0.413240284,0.412528588,0.04214242
2971,0.452605491,0.429068261,0.08366934
2972,0.450802566,0.476389796,0.067543356
2973,0.519097045,0.378682602,0.046918254
2974,0.421502743,0.377088288,0.055102386
2975,0.494813127,0.458959015,0.033029369
2976,0.534475775,0.544075473,0.103337491
2977,0.425629894,0.441414447,0.075989977
2978,0.41850795,0.417925923,0.05668055
2979,0.423081315,0.420438376,0.113328728
2980,0.506119844,0.47015403,0.090665998
2981,0.418023308,0.435970332,0.107840005
2982,0.44373631,0.634460684,0.04475913
2983,0.429757956,0.415196577,0.079497501
2984,0.537049806,0.483540631,0.101093037
2985,0.459195199,0.505224383,0.059922939
2986,0.399921936,0.407104209,0.113589452
2987,0.399461362,0.398764399,0.112687257
2988,0.421679377,0.400859681,0.070854699
2989,0.445008833,0.474771583,0.029082715
2990,0.358405423,0.397547035,0.095282089
2991,0.368551905,0.544779405,0.049346957
2992,0.437858643,0.402786799,0.084972209
2993,0.515668421,0.49708104,0.070727997
