,ecg1,ecg2,emg1
0,0.733046415599366,0.7009183356826983,0.09734866381528375
1,0.40353687230954205,0.40365787768554273,0.03696995564670897
2,0.5012121281883152,0.49103876116483425,0.0505234525198849
3,0.47804850760516937,0.4727076404035706,0.062077256555406156
4,0.3994226831410893,0.4004947939643707,0.12911552520623928
5,0.402270647853851,0.402852647715643,0.11850321992099723
6,0.4189937735882233,0.41680112281103476,0.04661905295422801
7,0.47624454381317993,0.4731646040835773,0.060380036923031274
8,0.3669465629107178,0.37470742977388394,0.06625532218034802
9,0.3623061143393179,0.3524623773049067,0.138981009350548
10,0.4575883385470296,0.4468925476472977,0.054131171412693475
11,0.5525491409443347,0.5374043503990591,0.0621928843749319
12,0.4400525241087587,0.4386417086725415,0.08905084173431609
13,0.41810972936919577,0.4156689338472903,0.0805424358585718
14,0.4232212112029078,0.4204028608617172,0.09872567584348721
15,0.4875494040740853,0.47200755058830646,0.09532658126576465
16,0.43851779315129247,0.438770885950052,0.043388437973643466
17,0.7547744678253606,0.6686390849881797,0.12954949593007092
18,0.42497784054961285,0.42683625987271523,0.04771402276981854
19,0.5132604495104369,0.5012854457013343,0.09429365772273668
20,0.5124142183174631,0.5087271333028549,0.1279854139642977
21,0.4153423065945995,0.4186330506500531,0.11019948228909628
22,0.4108061435379753,0.4141605831836669,0.09546105937434468
23,0.4159251910883799,0.4186694032212557,0.06709930893903854
24,0.49568536435386623,0.48754297221411347,0.11938232535067785
25,0.400698828842886,0.4005644026147417,0.09068240909940169
26,0.36380332612520105,0.3451014931169004,0.07730176012195772
27,0.4192766452116644,0.42522471221439073,0.06856452529325807
28,0.5265715609484365,0.5173768280760637,0.045241616614316395
29,0.4347154119837334,0.421896014120708,0.08562469109036444
30,0.3861228373178607,0.3910754804054726,0.10296951434409117
31,0.38697263988997743,0.39238720211280176,0.11618874059298381
32,0.4206707626789211,0.44436916707573904,0.027045007789040818
33,0.4202605741245721,0.40089663433204903,0.06213799822068681
34,0.43916773947630805,0.6867338657334899,0.08984605803386679
35,0.38042442973198165,0.3948974758133885,0.06502414303425649
36,0.45150763013138573,0.48293071853338554,0.11931223857246216
37,0.4918568917819648,0.44982906638269826,0.07239622091858004
38,0.3856560501890013,0.38586853619702177,0.10070434821352942
39,0.3808822337953276,0.3884487224153057,0.018434092411149197
40,0.3882898849428488,0.4089189761471408,0.05462730514701026
41,0.4730896750924385,0.435234829166377,0.03341536190793279
42,0.3848820919925744,0.38200029570888194,0.10687759870481021
43,0.34718648536464725,0.3940120356745601,0.08681107058261085
44,0.4171348830825561,0.4574270077826107,0.09285041827046524
45,0.5294909030256341,0.5140179562994456,0.12366869327596887
46,0.44145524488737153,0.41436120572161705,0.09525593969792756
47,0.4003159063626225,0.40705435476512164,0.09094179390038189
48,0.40659128580073467,0.4136792498088332,0.06019628859019364
49,0.44717775499503853,0.4898568892423747,0.11532281692054844
50,0.446574064044836,0.4203827550947099,0.07824953133135668
51,0.49521923239279386,0.5394671445631836,0.10351256259662793
52,0.40928538827831806,0.42725756497649314,0.09723493086330269
53,0.4803393490481891,0.5240949585096971,0.07658616014246612
54,0.5373058302630404,0.4849234884461979,0.06092163462184793
55,0.4241065735866165,0.41694718852331236,0.03281450316064273
56,0.4138940137867937,0.41812344499223986,0.0885336660130728
57,0.4188286928089525,0.42830388887318194,0.0633937509730036
58,0.49850519142359306,0.4929828534642845,0.08918598409793495
59,0.4247441684709814,0.40394986421756307,0.047419671954951496
60,0.72525445631912,0.35010937128045616,0.04355014931060238
61,0.42197604551820156,0.43749978079866136,0.11028517012512797
62,0.518586408229523,0.5353813559951249,0.12100344718912608
63,0.4947283670110858,0.45351264060543295,0.1301637514851663
64,0.4053047730243119,0.4055104539623473,0.05073982345298357
65,0.4018594999750098,0.4055132473736356,0.10000187852853795
66,0.407752172070882,0.4245365143149723,0.10285141933437271
67,0.4844711550208465,0.4528330774710837,0.040501809834745245
68,0.38815360215377903,0.35366290474148987,0.11783852441098346
69,0.3423374558626533,0.3605165305005008,0.08517341335481995
70,0.4119518784640601,0.43271326952187117,0.0937150082684948
71,0.5195081464230106,0.5098568024897079,0.08110527158120184
72,0.42642554284249556,0.4040312209278166,0.08267778749319957
73,0.3799850414216709,0.3838017624160992,0.1028896151526
74,0.3820829016722769,0.38628712288709743,0.07624617778892304
75,0.4179284806111745,0.44520165177605076,0.10783568869526469
76,0.41738370152564397,0.39819446823993143,0.0700096296839991
77,0.4543625870075847,0.6880716994121671,0.10944088824353909
78,0.388239354632153,0.39285392145244535,0.05673447204486927
79,0.45964929685856715,0.4760467597429159,0.03382333759270522
80,0.5015573959366332,0.4673957910716473,0.04484118723054557
81,0.3954742344514607,0.3900425213060087,0.031118734641325984
82,0.3908202887497586,0.39131528176354013,0.09391576490025651
83,0.39886203059165404,0.4023794650064315,0.08422564852644325
84,0.4849256506148454,0.46858581609757444,0.08806948223697919
85,0.39943351546183115,0.3772989182334514,0.03026920637576012
86,0.3760716757679443,0.3319688383647409,0.07985414680626579
87,0.42849479082543174,0.43320939599703356,0.039523944781729506
88,0.5412862071767806,0.5311933564812538,0.07038010945902193
89,0.45786595871448443,0.4400147220494641,0.07821808360462407
90,0.412221076394258,0.40949285682285386,0.02700921291438842
91,0.4175118973344498,0.4148030582852066,0.06293669868710178
92,0.4520636048531309,0.45387040519159205,0.062070177419594336
93,0.4613831693614888,0.4484350126433637,0.10079382793849419
94,0.44441068429637876,0.48227681882910856,0.056619786796129064
95,0.4171938610889143,0.4185219955739038,0.06111223510470175
96,0.4847599017838651,0.4798025419619065,0.10563118304150866
97,0.5470727574760803,0.5329372957029405,0.0621687896628303
98,0.43158050622717803,0.42824747262359053,0.051820771467020514
99,0.41788405606978085,0.41633315072896515,0.0389077354083426
100,0.42084186718584116,0.4190695496499858,0.05469031983214509
101,0.49666097664652975,0.48689677939404497,0.08127312171490145
102,0.4236619116622591,0.4227594719091282,0.10730803944779171
103,0.7231957961611019,0.7181207496588217,0.07897125407194444
104,0.42365184105243514,0.42477966202104445,0.08078142446668043
105,0.5206321179100087,0.509267379724592,0.11791675052661092
106,0.48219620991747103,0.48037349567172083,0.1198668037511987
107,0.40207925701627845,0.40575883749889075,0.029407731250472392
108,0.39982728231544407,0.4031501538592104,0.09527235495244253
109,0.4107485053443509,0.412168046459366,0.031643366190740214
110,0.4639008397889235,0.46119366232061043,0.08584909930001362
111,0.3493819914022862,0.3585713665133029,0.13421737071669743
112,0.34391527338937533,0.35186917618063474,0.08539622444447112
113,0.43178576976880967,0.431344112847577,0.0795992465783433
114,0.5141205675350794,0.5016879025698074,0.045440445519030134
115,0.39805309224658425,0.39824516246034636,0.12451578202774802
116,0.38217753354840867,0.38565067932378716,0.0406980625863127
117,0.38623834812085245,0.3897748599415304,0.10551648536735354
118,0.46649288964808955,0.46344312626684037,0.06388980394230923
119,0.3911097111751829,0.3899762124700691,0.04426901977808516
120,0.5028356896497832,0.38377420295219056,0.10422332535063826
121,0.40771690985264186,0.412882724327856,0.06354780639942488
122,0.518318576239583,0.512255869057046,0.04581587924848875
123,0.44400758833704734,0.4282851041803375,0.09948296875142054
124,0.3955277040235716,0.3973221670442958,0.037517408014479364
125,0.4011052862911042,0.40290885330141524,0.0949342330557937
126,0.44072654755007934,0.4558192929913155,0.1301920039158842
127,0.4377014651592347,0.42244628773479165,0.035386862999599866
128,0.5507432672066098,0.7082704321191308,0.03208254295174237
129,0.40621739954690583,0.4120121402830823,0.08892775765337332
130,0.48364165811868787,0.4990826046380764,0.08296096925981408
131,0.5201355835226597,0.4866907956309232,0.08079683762081426
132,0.41651514132147005,0.41264252520293754,0.0988942697239743
133,0.4124383113441584,0.4142416042680628,0.054691297587149725
134,0.4196399154236805,0.42562613799416693,0.033882584505416875
135,0.505632881927907,0.4867412011407002,0.07052405133448421
136,0.4192724479352058,0.3926427303245632,0.10411025034121736
137,0.4623068183625858,0.35205911075434526,0.041033866836364896
138,0.4321233831673178,0.4497087455316884,0.11199502915108561
139,0.5409549312426486,0.5429145442863036,0.10546271277138976
140,0.4759744140696788,0.4462139906482442,0.09147462444167724
141,0.40983795000404466,0.4130545930894024,0.10969262983500798
142,0.4099032757805072,0.41426862646219387,0.05038516215863345
143,0.42418609278749253,0.4500126111686207,0.08111958234925246
144,0.4760524830642363,0.4398212669281546,0.0789984032178658
145,0.36271636082775094,0.46913828961254356,0.12080966186928084
146,0.2131123026997106,0.40443378965338217,0.08260751394667522
147,0.32824525533141025,0.4641775137678944,0.05435757797292526
148,0.4370456829055782,0.5073031566722869,0.11251146701675785
149,0.3335813081285657,0.40337644914068826,0.0795976882953114
150,0.3085341379004529,0.392328979311375,0.04702167612751297
151,0.31723359639855353,0.3942588182115794,0.11491832367167454
152,0.3712388961085644,0.4664814408714688,0.0589083874194264
153,0.3512313595260105,0.3942727476070276,0.0588073982979342
154,0.5137104201987265,0.586212921841646,0.059824496213271475
155,0.34055518036999977,0.3987280251092805,0.056181401436029045
156,0.4213624100476496,0.4926880489579122,0.0702332278360127
157,0.45222863203020636,0.44687898353204514,0.0450385047265173
158,0.3516953887390525,0.38547813103777284,0.0928495954189086
159,0.3511940565003283,0.38784343370334873,0.05161220813144697
160,0.3617041984789111,0.40521314348558546,0.07727815542834969
161,0.4467424714629754,0.44668206409041555,0.034470161974971235
162,0.36033627884472097,0.35151014632042854,0.08255096139839964
163,0.34377234490338116,0.3583563703696867,0.04011575901661263
164,0.39295783054116706,0.4378363227397932,0.13078518335191083
165,0.508758489535708,0.522211112753537,0.05234700339188986
166,0.4332386610826636,0.42123269774578886,0.10751431514685464
167,0.3845578502679815,0.40288446443831183,0.05823763067006223
168,0.39207828280543644,0.40915982798952377,0.11800215483211077
169,0.42100181150731253,0.4660255271679472,0.10824500915994859
170,0.4533489372125339,0.4296687850292563,0.09684193108139366
171,0.3637203940992574,0.6780042962803551,0.05760627034891834
172,0.3751930632591731,0.4169039040933048,0.04587194432718367
173,0.45534224671413215,0.4907585836550806,0.11059008235166191
174,0.5485089896230761,0.5173625103152282,0.09725673614321435
175,0.4346902281967271,0.4214146246272612,0.07260136075937228
176,0.41018073295977786,0.41533648577311055,0.05635560998507389
177,0.4146501557282203,0.4200605364398734,0.07092641407084994
178,0.4659462925020691,0.49381152454303234,0.06381844863847486
179,0.44227850737248453,0.4238678570722363,0.11551964806194771
180,0.5308864164174006,0.6990770253133037,0.09203484358962893
181,0.4130294257316436,0.4226274580381528,0.037565397427076805
182,0.48085982659263116,0.5083055736120653,0.10658949211094883
183,0.5299014102728357,0.4898028922667904,0.08624835226555523
184,0.413443925902255,0.408034394379422,0.027987971028428434
185,0.4004597271883631,0.40428690436904025,0.12004227558742453
186,0.4023345014906131,0.4085482127285005,0.07251093698917184
187,0.4795448175945969,0.48068683966178927,0.08262533905197217
188,0.4032087753472461,0.39354315999190226,0.08714154627522715
189,0.7001590455341181,0.39047494157803997,0.06197106251745406
190,0.4089649899869835,0.41002915934838247,0.07818469878953073
191,0.5081750671142645,0.5066909392986833,0.09913160970804087
192,0.459858221316377,0.4286742875224251,0.08302817455921184
193,0.388131631107424,0.3839810425179895,0.05090555665826482
194,0.3881468102412403,0.38574037597840527,0.12405682667156369
195,0.4082180658987584,0.41683664755962113,0.09132776613531353
196,0.43937858336605473,0.4178018642740736,0.06365323701446107
197,0.35896133791060525,0.4434948649605288,0.07020007076965835
198,0.37708612231639405,0.3883949711061553,0.06697218912680432
199,0.44843251968522657,0.45462962989049704,0.043747019368877565
200,0.5019208007286402,0.4838006938792787,0.06583273634551993
201,0.3948291676444664,0.393305970486476,0.05050662387026962
202,0.39030343547795454,0.3916014254755612,0.08944018092442321
203,0.39882366956501325,0.4003275267831288,0.0446051327940143
204,0.4813199078569923,0.47200767232718355,0.10351092672996494
205,0.3904225395041364,0.3863514778469703,0.055643420334465586
206,0.32683735984867246,0.3329646614605537,0.06604397261297063
207,0.4368245924298829,0.43505657837836653,0.09877981314354096
208,0.5439531307635939,0.5297155477240095,0.07020012114629147
209,0.44069285161865857,0.43505232532599547,0.0764360980111559
210,0.41257111312154593,0.41179195100627086,0.04393771058530973
211,0.4184176130781141,0.4172255821347629,0.09195586719831507
212,0.47858446154275913,0.4741478911804361,0.12297799865865548
213,0.43788506380959924,0.43340715050473266,0.043432293691334216
214,0.7472566444424621,0.7206802778323592,0.05537724039239781
215,0.4254755336559296,0.42371982780972406,0.1114695652982823
216,0.5160128723724473,0.5073269742282328,0.06764562633185871
217,0.50962969564589,0.49464759220153787,0.0823354771745888
218,0.4189935228088163,0.41691845906321345,0.09711169354881274
219,0.4169252992383987,0.41592126173969757,0.08435929190766808
220,0.4249382084328509,0.42475232189901746,0.1370581207722892
221,0.4967623573593526,0.48317487184715724,0.05339886815643438
222,0.3953160244022731,0.3862551987120656,0.051242719699629895
223,0.33209892523259776,0.34464837622943256,0.08090741617922742
224,0.4390380952042472,0.4400217298073781,0.0792433550742306
225,0.5399592905068525,0.526557896653419,0.09398731772277562
226,0.43068976018714034,0.42407244534959543,0.08536765957029108
227,0.39678083445277723,0.3979495203344092,0.05667836510972626
228,0.39746075365974354,0.3989417025793244,0.13015724368277465
229,0.45171925912027844,0.45293835649060743,0.09173416884016622
230,0.4091373330932313,0.4061524177907082,0.0740866813628229
231,0.7024449150628441,0.6952242003156403,0.06651872500410827
232,0.3963009888228981,0.3990157291885965,0.04986610481863375
233,0.4858103603575826,0.4829272673740853,0.06850696808086625
234,0.4690002093975546,0.45841063359773826,0.06636632328188243
235,0.38396099834543196,0.38683946844667794,0.04721188406076436
236,0.38374347072571713,0.387143123355582,0.09006147430218442
237,0.39750226904489716,0.40081342787188157,0.11306166758848629
238,0.44986203519170076,0.4441663732870783,0.11756039241861832
239,0.3399733292959237,0.3482844693505711,0.055219103006481564
240,0.3476608642333495,0.36097093657808654,0.10928689775277159
241,0.43433804437100587,0.4348061051296154,0.08228978444346588
242,0.522635462079299,0.5089901423018925,0.08100974548341856
243,0.40945210419651434,0.40690160844289014,0.12600830647872788
244,0.3930445141308312,0.395017808655757,0.05715429126212868
245,0.3997470105089075,0.40146680480642294,0.07657602294258324
246,0.4750002434861925,0.4738326808972153,0.05252175607774042
247,0.4151633791945243,0.4133993687369927,0.09288944666925518
248,0.7314722897583016,0.6207663077255176,0.09593851373802988
249,0.4075236742086531,0.4140310752678745,0.04852604635188912
250,0.5056727367214435,0.5094035084381132,0.0945189168440397
251,0.5015833530081374,0.47829967693422226,0.06619375718763416
252,0.4097055009218429,0.41046935704544474,0.0889715918988264
253,0.40936107133557453,0.41299746756655664,0.1002120957601647
254,0.4176245268867632,0.42539993453429426,0.0900381231419341
255,0.505878388344398,0.4874032683459767,0.08703599753496792
256,0.41863056884111793,0.39542546070228435,0.0659552175381357
257,0.5477852368924935,0.34520435452341336,0.09691017839507499
258,0.4299993631184462,0.4439902809810162,0.07484219360053322
259,0.5347819472889173,0.5403484853176065,0.0586110394611142
260,0.49420968327916537,0.44995514987839114,0.09751832453229155
261,0.4112682239523342,0.41099587312355157,0.027258533963920896
262,0.40933739337081054,0.4121687856825944,0.07507854825396568
263,0.4158554736065453,0.43954427821386666,0.0009460195657586454
264,0.4956465220988796,0.4485930470389262,0.059939830040002584
265,0.40062275247599965,0.3942087261223082,0.09015797894743294
266,0.4085364911791647,0.3901397390747453,0.047845163861122315
267,0.4161655554628,0.44964678798498714,0.09666790799090558
268,0.5237743448834905,0.514278365054187,0.11079714792903106
269,0.4473269306073344,0.4066695206001628,0.0636571728120379
270,0.3867920008714967,0.39021265641210756,0.082872485577037
271,0.3870714209784827,0.39173865386844664,0.05811828272199859
272,0.40659659607911725,0.45453804887524496,0.05968062607811639
273,0.44276041830554735,0.3979639548777981,0.08614358018898056
274,0.33591558574870506,0.7014098250365693,0.13576857193856007
275,0.3487337058013278,0.39667139487448355,0.07577876156875876
276,0.4288063784149625,0.47985150546498134,0.05701161460395713
277,0.5132344517335917,0.4675171203439792,0.07078950369532232
278,0.39769148965640744,0.3886967788762119,0.05727889186538626
279,0.3806099832710452,0.38853850293473846,0.08329800016155026
280,0.3860156294895135,0.3977111793011632,0.08882034473626194
281,0.45962768512119534,0.46663108840374,0.0811168280942041
282,0.3997224114710921,0.37956017701945355,0.06758416410780461
283,0.7371656067514428,0.32464965112237554,0.08018104069199695
284,0.4107104607637464,0.4227237264980741,0.11138909796949754
285,0.5095857573302622,0.5227810817075207,0.03848154975072836
286,0.49174198407441405,0.43704096661793534,0.05158203490029237
287,0.4082431413122396,0.40285295736611737,0.06062511221390852
288,0.41020921482269934,0.40846150211780285,0.07551963146947369
289,0.42267477732895686,0.44419951216494424,0.10987852692196842
290,0.4978471814473383,0.4472033576244824,0.08064703547165569
291,0.39899561725196764,0.44667761770349834,0.10181406054398202
292,0.34142175584113243,0.41199811956929233,0.07836170837845854
293,0.4504821262544094,0.47422879370822746,0.0837158017795066
294,0.5590847241864587,0.5311026123887163,0.08031945757297801
295,0.46024813070421555,0.4282622925862941,0.07406643850655467
296,0.42059301098974644,0.4176790876213611,0.0344002414527704
297,0.4236814443572454,0.4217215576305392,0.08665715699681432
298,0.4618330923804933,0.49126357346360516,0.1156721818642273
299,0.45673496278660464,0.42690476014221523,0.11526106809901317
300,0.5066142767443533,0.7030598429560558,0.09425871478260386
301,0.4414063316569212,0.4281205623778953,0.07871819357180092
302,0.5085490951923465,0.5151730982198856,0.10311782803474184
303,0.5427055024606374,0.48400015487148407,0.0850669093621531
304,0.43122889742058457,0.41043068358981893,0.07702040769861215
305,0.42095102426135267,0.40827549228611504,0.09562107092810967
306,0.42256327943468364,0.4176437315579312,0.06068314186354958
307,0.4998669215379645,0.46681393923496817,0.10911807859764
308,0.4039530250032901,0.36522670196359375,0.12075609427631893
309,0.3409748324725419,0.3438286677226997,0.0655523029732739
310,0.4298762324618115,0.43100104778954285,0.09286612378124279
311,0.5289750534892537,0.5115129475496389,0.0893785849068332
312,0.41927797723554605,0.40697763184607705,0.06898457120571923
313,0.39121823768295794,0.3867226310820062,0.06498854238302071
314,0.3929577824734827,0.3890512774774909,0.08998625150539029
315,0.4645465073056161,0.45315311181227413,0.1003213105453688
316,0.3962768932695315,0.3950966596143606,0.07031554772338443
317,0.5397204345675698,0.6447231488599326,0.0698450317886642
318,0.40088850393396036,0.395710708263732,0.09152024366738096
319,0.5097754083280405,0.4885891069363203,0.08890205623203835
320,0.43508891369258584,0.4508132530153841,0.10958439883086135
321,0.38733451113901196,0.3883504676180324,0.05056837791353531
322,0.39255152592958065,0.39171754524802926,0.04576514353475011
323,0.4360747254470416,0.4101107593177722,0.03405655394142785
324,0.42249721520537464,0.4509170823022367,0.06374678233197686
325,0.6361254381957279,0.3591747660549832,0.10739021740673577
326,0.4061251202209709,0.37315121261130335,0.12453323457646476
327,0.490931176481902,0.44793051611403856,0.11195171450198056
328,0.5076986967594311,0.526076909087842,0.09085119925073767
329,0.4116111385998865,0.4247883834327193,0.04612558452648581
330,0.4110480703578633,0.4106024871094641,0.0673769858634929
331,0.4209142954792663,0.41640502188934936,0.10899970401820738
332,0.5033613195346491,0.48197183283528444,0.03426898345727957
333,0.41129491604246604,0.4292455191292188,0.06135831876632672
334,0.35410272045741875,0.7262901951238471,0.06528821055571274
335,0.4462353802233262,0.4282480958360618,0.05346149630934509
336,0.5562650801317648,0.5149090802559537,0.057530831196264065
337,0.4637873850318972,0.49560878250090634,0.06372476545314978
338,0.4176612237456081,0.41975184904753116,0.07333914280510587
339,0.4198665235696062,0.4186914182313156,0.10653950723839528
340,0.45111137584892924,0.42762684623659875,0.12093575855180298
341,0.4591924711694231,0.4854401931188086,0.08052521344116649
342,0.4174915007563452,0.3886670937903197,0.0919212297943775
343,0.40324118704330625,0.34387863505740435,0.07154930417934358
344,0.46827356531185216,0.43990554040915386,0.13239765859447333
345,0.5276126082507459,0.526260265782514,0.06843967419083291
346,0.4107721869576342,0.4237570753053631,0.05204975917158649
347,0.3958861581161972,0.398151693163322,0.05025026984564075
348,0.3977337274839715,0.399093831219848,0.05932162177860371
349,0.4757374624913284,0.45458184663794776,0.07692372884757673
350,0.39727593597314115,0.4052242539279032,0.09535383321742076
351,0.6206233100058768,0.694197594698272,0.09901032708090556
352,0.39841483709477254,0.39755332623418704,0.09557040578395064
353,0.5011764504698047,0.4835370761095884,0.053941211203484246
354,0.45429726303446993,0.4561937524710299,0.07047212278176176
355,0.38081710727126383,0.38516406695312955,0.06944618501366957
356,0.3816938014112692,0.38552347998112424,0.12052975007548228
357,0.3965774244939745,0.39895346132735976,0.10988787385392577
358,0.45268191274688097,0.44538847169044427,0.041854503161928694
359,0.34122727468766667,0.347219422227648,0.05797989512859033
360,0.3224966734847312,0.35030679756643535,0.0850887367500239
361,0.42379469304492823,0.4306636756104282,0.09934389222838279
362,0.528929952019045,0.5139650913037129,0.046195063793267946
363,0.42303098743565326,0.4125738058006192,0.07502604966797304
364,0.3904403887363457,0.3950974838104363,0.043213255134813985
365,0.39688410307488975,0.4011798809300231,0.10137046926370367
366,0.4371325294083319,0.46229282595918575,0.08751081286106235
367,0.44414907551709826,0.4191231586918085,0.08766507993311141
368,0.3978491361001154,0.7097293662922642,0.13332901473043896
369,0.3908569488729704,0.41368086676814775,0.13936718657307223
370,0.46206928666068325,0.49534629958266274,0.05684045741418604
371,0.5504626253101316,0.5003534014272233,0.06873124638197148
372,0.43548191502431555,0.4158162253172293,0.06775780250992855
373,0.4129835258667166,0.4149807187227975,0.08459229477601037
374,0.4183378267315846,0.4224810526358167,0.07166088882954837
375,0.46874356557764973,0.49909170604284425,0.12001243382964678
376,0.451580682420766,0.4184224610686388,0.10150788719121923
377,0.4819680538852257,0.42031428122923253,0.08457270582490715
378,0.4182803088919427,0.4358817432184815,0.14693810180601352
379,0.4851979681457862,0.5339706078187243,0.10088454278409355
380,0.5422084199877184,0.46104209841017585,0.08854577870840889
381,0.42551315293301584,0.41233638730769484,0.07348564495890952
382,0.4109591001807492,0.4130025889426212,0.042941760662785974
383,0.4129248544467161,0.435632701015946,0.09722337386865547
384,0.48724053754667684,0.45173678289839936,0.08413486592465966
385,0.41535012829703877,0.3879260853026876,0.03368364096132838
386,0.7396095368611783,0.39326228735279434,0.05324866809470798
387,0.4190551300726484,0.4528829395876597,0.045022939160871175
388,0.5146112264616458,0.5083217728125877,0.04945674176089053
389,0.4762319912314048,0.40356857377336264,0.07548217909322688
390,0.39727496023865794,0.39067889318079285,0.11091317932280606
391,0.39556103592200553,0.3925348978261409,0.10757866624724499
392,0.40856561980054173,0.4646231430312041,0.04045300354489951
393,0.45333279239065893,0.3930150009410752,0.0966820761196323
394,0.3390120735850658,0.5301915842469362,0.01676815018439027
395,0.35455871641551995,0.3966148043834685,0.04901510884762338
396,0.43476050108548125,0.4924051883476882,0.11210823241299807
397,0.5138429900892276,0.4421971477694413,0.10029796457741381
398,0.3987688767480858,0.38272936314425554,0.10565742932856809
399,0.3843349445120273,0.3854382835063195,0.04030436477690828
400,0.38989068813066374,0.40294781272826086,0.10585436340233315
401,0.4709315565934503,0.44621684551494256,0.10559118825835095
402,0.39815374335546605,0.3472519917354834,0.09227925752148705
403,0.575131867460487,0.3457089578066941,0.0957837312648404
404,0.4078132462663213,0.43120547356357364,0.11312788269310664
405,0.5173566937484124,0.521618963817725,0.044497100424617284
406,0.46208769710254116,0.42301853291904346,0.08498779727853856
407,0.40083057424745394,0.3999914417418904,0.10665896189729654
408,0.4060828981206315,0.4062955625160313,0.0731820076398381
409,0.43106453283496293,0.45268197557462564,0.034748068338860016
410,0.4654615131121528,0.43675465565492533,0.023239363212225018
411,0.37811600374685894,0.5287039118805854,0.09192133997328633
412,0.4011994749241088,0.4149389401489765,0.05816499240904752
413,0.47440699803798947,0.4803873075530847,0.0606483038860342
414,0.5442079284611615,0.5249945315588503,0.09777652615718493
415,0.43020588470856713,0.42477410162715157,0.041308004571146556
416,0.4189127724556504,0.41617785388409667,0.03472068654313751
417,0.42361444985005003,0.420582112465962,0.05390567621681745
418,0.5049843682779093,0.4920576130290204,0.10034790051012119
419,0.4242398125483703,0.42487300185602195,0.05650534126676095
420,0.5183416375438558,0.6905404657950222,0.048540888043978166
421,0.43469246504569026,0.42725580475228786,0.07704895257620395
422,0.5410585899802395,0.5161377720359792,0.06141570760096295
423,0.4573506238654118,0.479642130544952,0.04197498938580704
424,0.40751252254466785,0.40959530088167595,0.08650805800820856
425,0.4077045966856805,0.40778795050897887,0.08086531155516999
426,0.44871503294382065,0.418516705754128,0.09147459454052802
427,0.4253163115538573,0.46338986068014876,0.030889424522812504
428,0.6454339597068496,0.3606844595246075,0.09462284032018173
429,0.40118319284571546,0.3564006174408163,0.10894372231982452
430,0.4834170660556383,0.4338343350716539,0.09543576966479782
431,0.47872432621897976,0.5091785003214943,0.10605383974626906
432,0.38691922021304337,0.40386088197542636,0.06660693418057322
433,0.38465436803385955,0.3859736217165136,0.08350983411451374
434,0.39509687662663573,0.38861492738419656,0.06658973692540425
435,0.45296745541569305,0.4549386732084315,0.04185662277999621
436,0.341313535064777,0.3930057449676455,0.11542965654892642
437,0.3402321266455488,0.611768705185921,0.122741075204703
438,0.4283551606931546,0.3936922007264919,0.08454616641098067
439,0.5199174799513837,0.48822651792200955,0.10049048238951348
440,0.40595716461398557,0.4477918110909396,0.0935008884006831
441,0.38537774810868897,0.38617659540870186,0.10314061353145709
442,0.3913621843692672,0.38984375400636384,0.027241057987186096
443,0.45858083480138256,0.407636432675053,0.1066718603489883
444,0.41095056079141457,0.45181569996457593,0.09805467415216446
445,0.7275414556276171,0.3566171717287151,0.038110051554875186
446,0.39940269958623964,0.3645763609936781,0.09551337777366954
447,0.48897494744158654,0.4440891886016751,0.07120770063382331
448,0.5013592038739509,0.5267954582432479,0.11110055658716914
449,0.40554871116022184,0.4259719395159466,0.04109624140437144
450,0.4048902303217049,0.40959456369481306,0.06940853067861086
451,0.41380518637650443,0.41541799163976467,0.03173015215298604
452,0.5023295564609566,0.47608137143171936,0.09986357462267403
453,0.41756532223420806,0.4310140768557834,0.06837295739178731
454,0.5063316184263849,0.7220588583983206,0.07667570896082262
455,0.43436569149153537,0.4274288749124153,0.09393137386294742
456,0.5432955472912986,0.5112997406403075,0.029616860911013874
457,0.48401752826471,0.49890935443567086,0.06440232713856707
458,0.41640642716483967,0.42021219771735663,0.07093810296189537
459,0.4173640513621004,0.4188185636359577,0.10103450535748802
460,0.4322303269314963,0.42706853810744283,0.05435364281499985
461,0.48545367842141485,0.48624973505472824,0.06084090635253047
462,0.3728130472900032,0.38952763273394386,0.1322066633970221
463,0.3422076846192841,0.3461368406920774,0.06866493658177614
464,0.44364847517238837,0.44148068764993365,0.08015204122950292
465,0.5411092874644247,0.5265191163464383,0.04893371119746386
466,0.42772816973635464,0.42319265524535,0.09781634216670697
467,0.39505840423782246,0.3991283384635387,0.10820437394915025
468,0.39587195559235133,0.3999616837134241,0.04961524727922138
469,0.44473004818574224,0.45956074824895554,0.11659773757470629
470,0.41473185552978686,0.40374923875822366,0.04944131418042355
471,0.5808664072307765,0.6677997122811902,0.05430934925531749
472,0.38564334540400846,0.3965148328110081,0.047537293598260436
473,0.4591545544309431,0.48621566849343656,0.06693728453999626
474,0.49228455657364334,0.4488225347691378,0.05134553504985473
475,0.38390188292129057,0.38301985966847907,0.03879092872671276
476,0.3767758466967527,0.38445699992152693,0.09276177182273967
477,0.38199985398696024,0.40014125957216584,0.09549725722034988
478,0.4677233759595433,0.4389796459044437,0.1077907125797288
479,0.3866876752360352,0.34625871896639493,0.08036277371664922
480,0.5595883978222423,0.35996526037253684,0.05779259019693003
481,0.3977891509847382,0.4326905128819606,0.03970796444486994
482,0.5057484467524936,0.5119786541115051,0.0389782874502625
483,0.4616527835434975,0.4097325572649013,0.10489471168268275
484,0.39072315094579557,0.3940381479247703,0.09573514135955508
485,0.39484836540869606,0.40026711253897473,0.08800032997249535
486,0.4107257542574524,0.4628655153056507,0.050689395196241445
487,0.47913102695147114,0.41798055078718277,0.0939547423221195
488,0.3774209529735928,0.711184248641077,0.06902079415386914
489,0.3281819772149286,0.4139083777998842,0.08048166080324627
490,0.44204870953785413,0.4959015843620741,0.07179116758670877
491,0.5497586905118854,0.5024046403194613,0.0646175910542133
492,0.4463961208416215,0.41624580654400656,0.10105458413504391
493,0.4141834046929531,0.4149899280529268,0.08255764238682994
494,0.4191921767394815,0.4222787279183662,0.08959758921085631
495,0.4681474181740426,0.4999363791681102,0.08107362408604414
496,0.4468900091284822,0.4202879071505202,0.037691137162409
497,0.5934340510824899,0.451662987309117,0.06965320137560017
498,0.42499325489498385,0.43548097190502977,0.0702849355529864
499,0.5023541456941841,0.5334169367543201,0.09334484278328806
500,0.5216105034089089,0.4668045567681446,0.0913374801458466
501,0.41867435699575717,0.4131553850489508,0.02827580366580841
502,0.41316372714099436,0.41348823548713487,0.03219258076832323
503,0.4179048474800674,0.4323932855104614,0.06236064490807719
504,0.4936612286794023,0.4580691644525995,0.08619909064413232
505,0.3931573183231375,0.36697571628902037,0.11383798181976812
506,0.3283810309474551,0.38083742567372914,0.103405230777221
507,0.4301756048273778,0.44465153461103757,0.023475718046620273
508,0.5321554616493073,0.5116661267266037,0.06252170457600248
509,0.42439332892899906,0.4053032494986001,0.1129629594118085
510,0.3901607435499792,0.38880871133098616,0.07732594232380953
511,0.3912772312567864,0.39082034550297506,0.07261570085628533
512,0.4456115020296554,0.45721630723206486,0.0660996182240626
513,0.40394106265808527,0.3943750517772877,0.11842666877004747
514,0.7078691588938132,0.6457396228131923,0.06397659932212484
515,0.38789272106599626,0.39220538040673125,0.06871079368595233
516,0.4788315941769583,0.48284067917404017,0.10361735444838051
517,0.46816402987970585,0.45208057595447804,0.11362641394014425
518,0.38150842955752307,0.3826898716332836,0.110205563398906
519,0.38221098628792294,0.38447821839887897,0.06902499689397433
520,0.39446703190457677,0.3970117111656084,0.05323513966055738
521,0.4624725720148958,0.4554049694913648,0.04664358070540321
522,0.3568918403468482,0.36031653145493336,0.07695197317853944
523,0.32428002804460776,0.3302180509387669,0.08094870576433083
524,0.4320680060411236,0.42671425394992135,0.10631402658927988
525,0.5330219402447749,0.5215381312591371,0.07223615508874816
526,0.42418983090580353,0.4263984796626916,0.07822717137862473
527,0.4011592592424956,0.40062432302874673,0.130960050279024
528,0.40797494430820647,0.40674323731620987,0.11716956454455145
529,0.47291923818327875,0.4529013849601997,0.08459490188457044
530,0.4283290710098703,0.4363113255850184,0.056278302121269747
531,0.7471452142725464,0.5542304009883533,0.10105358192672888
532,0.4235316803360837,0.4228835821735927,0.1312541946605831
533,0.5164240349989916,0.49124793391604693,0.0519162878452465
534,0.5082963448098016,0.5223236201853231,0.0516003454112538
535,0.4203790546338626,0.4266049348182449,0.0325618110595688
536,0.41985353585518626,0.4211032737979772,0.06417411090344602
537,0.4298880570259459,0.425961425859542,0.052468208078057396
538,0.49997443434312594,0.501673538697726,0.07636215934737278
539,0.3955221760482518,0.4237813708467747,0.0943186903839865
540,0.34074869563733445,0.46239813947553543,0.08383283905908077
541,0.44968802015017273,0.43344129487119876,0.1147356477766494
542,0.5520712474990458,0.5296593778132942,0.07994800610613662
543,0.44362232372398847,0.4558510881328497,0.08271813001151063
544,0.4071434837964065,0.40805014131732065,0.0864008199400528
545,0.40766694218359445,0.4080148481176836,0.09548224451939819
546,0.4528151573573229,0.4358532081202686,0.06060282678499215
547,0.42714289564358243,0.435283368431024,0.06663356858278287
548,0.5821197061578706,0.46230614178832585,0.14027694884362218
549,0.3947387006553973,0.39600902769612667,0.10205719634145384
550,0.4678230015627609,0.4584347634479131,0.11787920163530158
551,0.4981129467461156,0.49048428337366445,0.060314212911840206
552,0.38905253460867995,0.3928338096711579,0.12414920401592572
553,0.3809789229298335,0.3859534306557616,0.023088600466777524
554,0.3854214398309036,0.39007779552074584,0.08971789515399799
555,0.46976732164569246,0.46438230269680303,0.028875922561361667
556,0.3843680368764062,0.3841903452699349,0.07102339332038031
557,0.47470779140696007,0.3574350207447282,0.05514961546784159
558,0.3963300122304132,0.4089606948393496,0.054517204409902965
559,0.5063259331853673,0.5086824517080162,0.06867933060677393
560,0.4428384929937462,0.4319769546475397,0.05035987818989818
561,0.3829259260199326,0.38984001300071336,0.05472189207597747
562,0.3875992587688022,0.3943105062051919,0.030216548873980037
563,0.410971507153403,0.42445373977467316,0.06317568870913338
564,0.4518229725348828,0.4368975075987659,0.08737533960258033
565,0.34426799844607825,0.4053414614911397,0.05667469971351764
566,0.3701272420540809,0.39708381225371614,0.10485867791090836
567,0.45304202360963985,0.46005328845648896,0.05245207168878332
568,0.5405200392276795,0.520958947437092,0.10361538357398951
569,0.4266077056123777,0.4205929846308739,0.12387652880535271
570,0.4102860465734851,0.4110421879789893,0.10117473574975896
571,0.41679130943657205,0.41716033019995125,0.04969971378924795
572,0.4896681085801663,0.48842065855349226,0.056171106704633
573,0.4318591377880442,0.42739191349559225,0.04278818299146234
574,0.7608437237402931,0.7012223879320839,0.07588784196575395
575,0.4268074185632802,0.4321627650349006,0.11976632755148005
576,0.5219254719576295,0.522409600924954,0.11074680399519565
577,0.5059397377021352,0.49206322376407385,0.06713051797808803
578,0.4185492554452366,0.4210663967850843,0.12059617469472045
579,0.41696609071990776,0.42050994643591055,0.06925279851427998
580,0.425301406139738,0.4307603418285002,0.07003314253363604
581,0.497280957101098,0.48356020620396667,0.05132684163327053
582,0.39654991575769916,0.39939642537223463,0.04402983990267112
583,0.33172066372071773,0.3558463042667449,0.11585257560624755
584,0.4365522524011881,0.44735996908638564,0.09163908162864234
585,0.5413368247482988,0.5329315033147494,0.07570275233589321
586,0.43817814501943586,0.42961646978618073,0.12009049127564109
587,0.39613092780499914,0.4027948890602553,0.12119713800538952
588,0.39661289996020654,0.403110740860845,0.1303295164474862
589,0.43480766370455437,0.45368206552826196,0.07203094954220869
590,0.4235842716251039,0.4126084241319138,0.10439186858332951
591,0.4742702868182116,0.6744910728044465,0.07476263463746995
592,0.3854428507654186,0.39496715564669205,0.09993429833670245
593,0.45581083667472966,0.4708211635829844,0.07624489273823441
594,0.4939891066397438,0.4750908576705348,0.07572481793993967
595,0.3857789848749603,0.3872528171111477,0.03578625353536571
596,0.3789361259108247,0.3844573651643427,0.061918052410852714
597,0.3845847113402979,0.3906549114698714,0.08341085546626167
598,0.4697955110735831,0.4649676862680474,0.03987947606580416
599,0.3845742986299725,0.3832246463477291,0.06618733276817795
600,0.3953591878789452,0.34885174458107615,0.1022378613650194
601,0.40555434703752524,0.4101413291305044,0.11102474699935046
602,0.5174028335268236,0.5112399294330733,0.0994860317048705
603,0.4333107591900305,0.4362686354610795,0.09195060961622148
604,0.39080079967721015,0.39386048356011183,0.03437376575411408
605,0.39700828160278645,0.3992201015377951,0.08722131006755005
606,0.44046366062107656,0.4278001251547259,0.09981893738726738
607,0.43260162082863596,0.4472508386652009,0.09375007812757485
608,0.5614273650546777,0.3878309924085389,0.023771838234691773
609,0.4119084761815831,0.399530924573127,0.11166153395932776
610,0.4918493757100162,0.4639265857540249,0.02931819926179045
611,0.520034025093972,0.526073214369503,0.12009891019497818
612,0.4189212750038137,0.42550447535049096,0.09102020113921129
613,0.4161753513307985,0.4157696148602479,0.04640147956335351
614,0.42396248393625613,0.42110745774860125,0.08645325155224706
615,0.507778565862664,0.49414754561556185,0.07608411404533996
616,0.4178823134423656,0.4278826593908107,0.06927038799365332
617,0.377853672070119,0.6133609043219644,0.06074382741924174
618,0.44284779419145315,0.4327812932577626,0.085674327141851
619,0.5526455763090325,0.5274738667119367,0.0800775958096186
620,0.4681010461031434,0.4728499574701974,0.10544597415370027
621,0.41329357715189463,0.4153564990323123,0.07294506363271845
622,0.41388292991783004,0.4154742824782919,0.09067114657792036
623,0.4362540040427241,0.4356396632776025,0.11679066337649907
624,0.46330882269493734,0.452694705918832,0.03848359981259033
625,0.3637429743683027,0.4012447749587612,0.06635586454729012
626,0.3737717072307921,0.39830436094105703,0.09760136949129346
627,0.4477772326032128,0.4573421235637489,0.10627350537517377
628,0.5321488146222971,0.5063130322548285,0.028306422336990027
629,0.41294240388141146,0.40335031364321794,0.10740652585551674
630,0.38791058847716164,0.3925140922179845,0.12034047415826549
631,0.3895557302344905,0.3945692698019886,0.08719759962745817
632,0.4476935159401426,0.46785464203986826,0.08560773587695678
633,0.4041118129051453,0.39054847110539437,0.04108968132222517
634,0.6564798436410361,0.44369179811599413,0.05009559451247311
635,0.3919785001011866,0.4001755121959386,0.09588126790994801
636,0.47514456290349194,0.49832858064152874,0.07228160852037101
637,0.48338340233250665,0.4357505336961952,0.05131475904756437
638,0.387014718122625,0.3829834797369961,0.06638611173316751
639,0.38505403623670387,0.38618418786309017,0.03665851124273752
640,0.39357624767186605,0.40831189907135657,0.056355199493485664
641,0.4749308057661389,0.43839883156407233,0.11391801703298009
642,0.3821416689579523,0.3534867930997093,0.061286889470211964
643,0.32414082374042175,0.37400323742888475,0.02880246833677481
644,0.4206987058559333,0.44248269208985547,0.028549453918429495
645,0.5314210100286405,0.5173544307193579,0.11071811935960885
646,0.4349756984122868,0.4156252532060478,0.0947138575569124
647,0.4008209652747865,0.40252965375613603,0.027348778102596998
648,0.40729263668981996,0.40896465877269883,0.09305193243685696
649,0.45800378781223505,0.47594584858865796,0.02686780816782952
650,0.43690802635679027,0.42314964989658155,0.04831699100161983
651,0.6329222738804198,0.7208473801761107,0.042671493692364795
652,0.414880287335598,0.42675070640656243,0.10670909518684069
653,0.4955825231856772,0.51466344563855,0.07305046950812566
654,0.5221496109178188,0.4949272705754273,0.03013860269437999
655,0.41990575651437456,0.42105231036732005,0.09438374876335366
656,0.41553425053758564,0.4215027121576964,0.13454392498284032
657,0.4216176884172925,0.4326102566750313,0.03194872532930698
658,0.5064923996015982,0.4870589470227601,0.0969898339542967
659,0.41576675573771893,0.3882597350542998,0.08554122609428479
660,0.47663432675273854,0.3619890079979593,0.06273114888585445
661,0.4414927241243347,0.4520766618656986,0.11038320717146069
662,0.5474293182810175,0.5375384121849277,0.038715484823416906
663,0.47970774899058777,0.4345489697045033,0.03641157545050742
664,0.41189480009057977,0.4083366693004695,0.059790674176487556
665,0.4104011705167421,0.40905710155445296,0.06070811132307677
666,0.42415615541030527,0.4601222771085831,0.06722657283753236
667,0.47156918709879214,0.4185316438618166,0.13637266799463793
668,0.35818981250934656,0.6747168849082464,0.06215347261817376
669,0.3332102337663243,0.39622215623929424,0.0639884004818745
670,0.4320194138244354,0.47020784199124965,0.04907939821426769
671,0.5247929344616823,0.4797757678180713,0.06970600202081216
672,0.40931574714001084,0.3877870080665585,0.13199886522138496
673,0.38376486791233944,0.38282989599607875,0.03695555709644847
674,0.386109126276692,0.3873542550629483,0.07179464972828435
675,0.45010754137820397,0.4634941928069036,0.11483749918848955
676,0.3974178891733401,0.38355809884580394,0.05176396483086811
677,0.7234230792043898,0.43455670907959754,0.09567029689530349
678,0.3996418797655592,0.3967644344282122,0.056589399106500675
679,0.49769995462406946,0.49627310922463874,0.0823311022248933
680,0.46266350533794864,0.4420034081497002,0.11828909005843191
681,0.3919073919635415,0.38495034553170693,0.10784078291661969
682,0.3952296800241095,0.38897670644059357,0.023857661299791638
683,0.4184778645212971,0.40549565831077194,0.07280682937498335
684,0.44835505322991764,0.45842521451790286,0.06349414255234931
685,0.3939830522285256,0.36209866705310134,0.09876310956570648
686,0.3972427940277271,0.3347120544805088,0.050904240797350744
687,0.46937130353303247,0.4335698801414848,0.09260483959427646
688,0.5196406053245901,0.5266622738173723,0.11664657752228867
689,0.4151976625112551,0.43032890671501534,0.041034325364936224
690,0.4113974081176567,0.407204881575006,0.03602142093881343
691,0.41988440118523973,0.4130176276335793,0.05921084606642982
692,0.5031513372301898,0.4650228248361379,0.08030902462673588
693,0.4133148055615078,0.4351149937502209,0.12570303464194735
694,0.3506240013455564,0.6528256593640761,0.12665263419683015
695,0.4493712811491499,0.42456037208531483,0.10264881470045686
696,0.55890977805683,0.5017184759883327,0.072417371401305
697,0.46283967593285047,0.5050683845256806,0.09654060535007436
698,0.41927390230010164,0.42030174337983106,0.038192435555005504
699,0.4213373762072051,0.41777475819036625,0.11055349691172982
700,0.4556894854870146,0.42456746627263275,0.11141227016295775
701,0.4560544181105779,0.48878983496247597,0.09472128175973252
702,0.4478806564086488,0.3965765232202608,0.1153890175673827
703,0.4061778499665659,0.34137955869090686,0.11010408278270967
704,0.47001612667574244,0.43854405959283294,0.07314166622948862
705,0.5334904611971141,0.5291048586389343,0.05505878882730015
706,0.41454615287146124,0.43026195392529,0.04280469522553084
707,0.3966255415999902,0.3991171302502209,0.09339966462305531
708,0.39782581105719017,0.3996720935841719,0.056776931033756986
709,0.46776116774813237,0.4456752856176234,0.09297632977306394
710,0.40382957562436794,0.41272092165915586,0.10177385926327996
711,0.7343026035720827,0.6370331030799249,0.02724312480869993
712,0.398101315514675,0.39378175169325025,0.08635986008436643
713,0.48768021105778825,0.46707554048645983,0.05188853282996267
714,0.4778710211259556,0.4758799347572368,0.10382130718031185
715,0.3857197651779808,0.38704334441971755,0.021398971576502602
716,0.3836809331639306,0.38389776369911066,0.06949793004329681
717,0.392500813512218,0.3899068104448413,0.04991128226420245
718,0.4690705632932418,0.4645504036752848,0.08216074519572414
719,0.37205743781826617,0.38288458626757094,0.055386309318044086
720,0.31010237629756043,0.35067766013715607,0.05513790221760375
721,0.4157338479476673,0.4116428789172931,0.0349114633833398
722,0.5241999080197315,0.5115975901447961,0.06752621000024209
723,0.4240309933120123,0.4313084339835903,0.0876561719786786
724,0.3919952242576755,0.3948034148844488,0.0636556090531758
725,0.39849908494373587,0.4003492760486367,0.05016612665568633
726,0.45252116454848557,0.4381900009358157,0.05043310476082705
727,0.42646826698690354,0.4346679379083519,0.08151116375355554
728,0.6582195767420328,0.5038182510956354,0.10292968598522582
729,0.4071792640903549,0.41437889102738723,0.028437718904383895
730,0.49162403672370825,0.48389082461639565,0.07801700999480717
731,0.5142938345108078,0.5123935833867866,0.055298754056037396
732,0.4141908676225199,0.42081457625545293,0.05161788198318721
733,0.4116393549810442,0.4185400846865258,0.07699608189979577
734,0.41950750560612393,0.4258249360881624,0.09227446172286188
735,0.5054870802195051,0.4977942348055874,0.022284860859208493
736,0.418729172543448,0.40793920951326057,0.12574008870329878
737,0.4603314838490926,0.3519342346182638,0.0682947493691128
738,0.43407218469357234,0.4447318779220507,0.015300737327389274
739,0.542137307531407,0.539298707272017,0.10044364578716544
740,0.4828996479232507,0.4456737185197549,0.10818514433121243
741,0.41109451051971035,0.4130923098130628,0.03553093722036748
742,0.4104453400740644,0.41448321853982095,0.08924286230570257
743,0.42089641159676927,0.4579405059538848,0.054990297985862316
744,0.4870610169330546,0.42911478207947185,0.1314901561036402
745,0.38748701163975774,0.6368311859416281,0.08476901633383438
746,0.3362253725129448,0.4040540733159066,0.04880169383754129
747,0.43628032037493913,0.4748396029053682,0.06847100490055089
748,0.5421080783017074,0.4880027646434072,0.04284665249487858
749,0.4441967331452754,0.39516276571413855,0.10446765652173397
750,0.39545818450907966,0.38926332573315126,0.07595490652201688
751,0.39544555268993586,0.39283059881820326,0.0420269309523479
752,0.42330451005622627,0.4671749693199516,0.10444783643571537
753,0.4368022613259005,0.3858576066443732,0.10390042314898129
754,0.3648736784474822,0.3895548161810194,0.11675291742088006
755,0.3757816403390569,0.39904284057941874,0.04874909947643947
756,0.4445322022422946,0.49823976331798425,0.035479219475398074
757,0.5050559314313817,0.43232382633519595,0.12213911455608709
758,0.3925459424409239,0.38086072679596483,0.10376599965987798
759,0.38357609284033545,0.384321298369798,0.11390683184637652
760,0.38981881786590455,0.4049995952146205,0.07654899190746267
761,0.47499548828756377,0.44151239499317785,0.12191431413601103
762,0.39307610487493083,0.35409338245788713,0.05639129949543068
763,0.4261769011414138,0.3639876001660677,0.09358517316871748
764,0.41535699023858863,0.43986191360962923,0.06278484279690941
765,0.5270928617167178,0.5211693480300218,0.10716924865030643
766,0.4411287736895402,0.4196953329687778,0.10908116785928026
767,0.4019852139173584,0.40334067376704075,0.10411569986778065
768,0.40829260192179817,0.40966890233202025,0.08789282326443179
769,0.46013334104221915,0.4709329232899776,0.08192155309073881
770,0.43391190661036927,0.4269327702323801,0.12400030403541222
771,0.7078278577597495,0.7160390782983256,0.10484337403023386
772,0.41865645337684854,0.42369232752606045,0.13282404641018972
773,0.5100574021107469,0.5064971026649855,0.08614226648218742
774,0.5054994096021003,0.5026652191605775,0.03739593582098129
775,0.41742801875712743,0.4209995364607858,0.04266292116690324
776,0.4173121475183198,0.41994424057173296,0.05982480458236825
777,0.4280883340352255,0.42774918010628116,0.04048303026208528
778,0.4944341380520184,0.4962181591252517,0.05816637898163954
779,0.3946559341888656,0.40796852221685465,0.02654986787478594
780,0.36050618797534895,0.3488846685473195,0.1116111726921303
781,0.46351092084911527,0.4401169987042882,0.09066041915343954
782,0.5612028483406978,0.5352952473942547,0.09660448955402831
783,0.4476271561080192,0.44621664312257947,0.08435932329858527
784,0.4140930046090451,0.40624217076414315,0.10152902220831878
785,0.4141388344703092,0.4070453864329414,0.1107915483262855
786,0.4631892838387677,0.436113760661651,0.05786642483605261
787,0.42939782933466353,0.4357816027484531,0.03586123949361749
788,0.6237396409736461,0.42472532185553724,0.033027542193612085
789,0.4051778629728071,0.39027421284301833,0.03964777686579416
790,0.4807765145705223,0.44870009227050456,0.09273449917353653
791,0.49704631799581556,0.5011240999844159,0.10996801259731145
792,0.3938574834427009,0.39642750352097145,0.027889868083071975
793,0.3877535822751692,0.3840792892266275,0.09635070533679341
794,0.3923013563084107,0.38719587434424685,0.07435969433722224
795,0.4736711512745936,0.45770784416248633,0.11242952806592725
796,0.38308965931057726,0.39193748018881625,0.11000878558109327
797,0.34422233739632224,0.6416236316604002,0.08667070224013869
798,0.40879165526008665,0.39602447502427307,0.07472863503188205
799,0.5181295932689374,0.48873856752557576,0.03709470565249201
800,0.4247962346274129,0.45299517560600244,0.1201280388531971
801,0.38648344888258646,0.3888886576244097,0.10901414750270912
802,0.3919348734132835,0.39209494322477545,0.0491967835352541
803,0.4400416787834691,0.40884850041728493,0.07623834150739224
804,0.42141449245671625,0.4551189478259632,0.07064915265594048
805,0.6171340280105814,0.3588731750673576,0.08961894492854512
806,0.40308935318430283,0.36881300496577585,0.12017950657683336
807,0.4877232301336114,0.4472274417361468,0.12334933188364924
808,0.5051770965701006,0.5236054876252854,0.11074302517663284
809,0.40963218549134595,0.42304472379518876,0.10024385288543633
810,0.4092941425955966,0.4107426060456325,0.06543640465763459
811,0.41941117818713713,0.4168277254644255,0.09692171704401718
812,0.5008591582979828,0.48785644480713664,0.038501565942709856
813,0.40443019023025584,0.42534516999400307,0.03694672724994435
814,0.34646723442067295,0.6212991625700864,0.1063721069412131
815,0.4453804944617801,0.4302443274460489,0.07448874512377397
816,0.5559872669792737,0.5250807893342241,0.06674120027799774
817,0.4642196022228421,0.4784905706419459,0.108808474558284
818,0.41652940279348327,0.4171413617251257,0.10031329017983795
819,0.41872960749947463,0.41800429479665735,0.04420035025538556
820,0.4467306108655359,0.43429132707373175,0.029959869214835635
821,0.4645590995960315,0.4677429861794641,0.06209832267976326
822,0.3824429175916003,0.3674803177868412,0.06311366649377777
823,0.3889741309476493,0.3879018925998766,0.05841792215283237
824,0.45849222833312764,0.4550709257878043,0.09698107407551848
825,0.5417368548588034,0.5267126961058916,0.10026356122443507
826,0.4222323112656916,0.4192223185208732,0.08057088607762122
827,0.3965442085341183,0.40024665237057844,0.0759372825825904
828,0.39737276946875,0.40100129247831573,0.11305725992803531
829,0.45037133974171273,0.4620010162826772,0.10345354003132505
830,0.4153681564412347,0.4052628118619521,0.07733471389617246
831,0.5693955440313555,0.6996318094615749,0.08103309908060853
832,0.3949997829177013,0.39939414775391624,0.07146293296601328
833,0.4671768483719614,0.4837209807626841,0.048114119705949775
834,0.5011249346801285,0.46264686318826287,0.10634223169380355
835,0.39138224370453156,0.3870051879936013,0.12105376279395853
836,0.3833013914982385,0.38660891654174856,0.13283497483391443
837,0.387693296684008,0.3964621793460932,0.049408251035289064
838,0.4736601038282481,0.4558121761714726,0.07981293464295669
839,0.39158059573639825,0.36023369070754885,0.11999624784818336
840,0.5424811984589336,0.32381151070126934,0.09445636527033618
841,0.4068453846819102,0.42238044504121375,0.06830325817107492
842,0.5159372205702577,0.513486950145482,0.04954408381536248
843,0.4540476656660134,0.41577023195936325,0.1018511956034869
844,0.3957542712431176,0.3945434241123149,0.056248522779615034
845,0.4008313260903955,0.4005612804247385,0.07599998771153918
846,0.4286048351761723,0.45882255627245705,0.035070560119832
847,0.4546059022386092,0.4192998553980525,0.05857365822849065
848,0.3922945649097802,0.7029706172444824,0.10407092812335042
849,0.40371489298202057,0.4116052293641621,0.05595049094549956
850,0.475219746770026,0.495480602013989,0.06891864343845543
851,0.5377091806677189,0.49336819596403825,0.0716082864440054
852,0.4267728606173643,0.41362211966368456,0.08817877301667068
853,0.4179634491095098,0.41407047543334186,0.06783044854505388
854,0.4242045446119188,0.42315461110000807,0.0597358376672767
855,0.5080617470254186,0.4939870443504557,0.07990877677068398
856,0.42664972795223166,0.4053554654429945,0.10501242551546076
857,0.5006542801172648,0.35259520282336954,0.08773043848478083
858,0.4353989462624217,0.440537343290741,0.10066037819134264
859,0.5434318033891883,0.5386960621022121,0.11643423912594959
860,0.4723148236591517,0.4552747219026715,0.07642245165292512
861,0.41232035063358796,0.4113074346798734,0.12877676795905088
862,0.41285938015323975,0.4123318005227109,0.07409399723933924
863,0.43481492008683575,0.4361132113631896,0.08285870867523029
864,0.45907453030132284,0.4523133892382162,0.11336155243141764
865,0.3736613907529883,0.3782268675839823,0.05633888848189601
866,0.3838714812662548,0.38404691438412963,0.08855025135155474
867,0.4523631900375037,0.4460633842531132,0.038840970310358845
868,0.5232729089912871,0.5143633085769272,0.10557435868866571
869,0.40505514730007564,0.40681435674888755,0.10902616673511825
870,0.38765238483428577,0.38849559128724553,0.050290273268069875
871,0.3893052109194689,0.39018838111799903,0.09486022474442012
872,0.4633310335645803,0.450999054729577,0.06031079370582887
873,0.3932473463078364,0.39841576945074153,0.046575730414523064
874,0.6865700594176066,0.6891997452927366,0.10508503626164532
875,0.3931299197820135,0.3933021589006732,0.11323476664100493
876,0.4940806801418606,0.4763958319943301,0.11409453570837415
877,0.45589576429182843,0.4626915544031922,0.09798663503761378
878,0.38153017842340586,0.3862348293275991,0.07641880616363096
879,0.3837354514686572,0.3869478707583287,0.04725347737770593
880,0.4001837311543348,0.39756648584457743,0.09701626166643595
881,0.45407359218195154,0.4589809916278488,0.0436065051524554
882,0.3363172713215533,0.3647182224387362,0.08553928583053778
883,0.34943234724275796,0.3314897375366658,0.0826982600358064
884,0.4405650603669343,0.430092016112682,0.05053904852633205
885,0.5312337476563368,0.5208415792140035,0.07092156783104565
886,0.4191812823510669,0.4230132648621435,0.039966388557813565
887,0.40259966688487725,0.40289124654527,0.09199007469113389
888,0.4095823052030646,0.4091561489126915,0.11589610948967041
889,0.48416541749283604,0.46874646946459453,0.09165310161039066
890,0.42398268732889666,0.42597724112192736,0.04694471789202431
891,0.7304634243586982,0.7173203093862816,0.078553656634134
892,0.4242045878791444,0.41867565737398493,0.0430588889285874
893,0.5252070032209131,0.5046101241073245,0.08410872579471212
894,0.4972814303934453,0.4937923470659227,0.1027826373557442
895,0.41762777611565005,0.4166297107453075,0.12610075057456321
896,0.418732208407261,0.4166232797671515,0.12293965247363053
897,0.43148924751285656,0.4256354186503657,0.05835460912182817
898,0.4932204065012672,0.49060930200743524,0.10566136169368162
899,0.38384196073508625,0.39992661401988017,0.0600224374532223
900,0.3480246983523697,0.34427509225527453,0.09520064086387624
901,0.45190207661054227,0.44184253405057805,0.10522986511438187
902,0.5517673742425209,0.5350673311516272,0.08644816282387409
903,0.44002182549498114,0.4406149374179573,0.06687946593550995
904,0.40548898465955274,0.40595126383155555,0.08285335529015879
905,0.4062651144999522,0.40661195484326884,0.02249512498027298
906,0.4516128293491152,0.4436587033419128,0.1042838087081693
907,0.427272713375332,0.42742407798864623,0.11370501964364162
908,0.5417417803903555,0.52396902846113,0.05387952624569824
909,0.396207910644767,0.4060014383901389,0.06847501105062599
910,0.4651551445286086,0.4695416471595091,0.03792033094191621
911,0.5051311982857686,0.4936018568224063,0.10396582813910471
912,0.39237226748383747,0.397620989212782,0.07071428105618695
913,0.3823992171323717,0.39133700202388044,0.10854266597822775
914,0.38582322183580575,0.39544233183187394,0.029688488745273224
915,0.46899269224050966,0.4678879174400885,0.0916108704407519
916,0.38741510599610274,0.3846747300650647,0.10852042622778862
917,0.5826896749157867,0.3371897281661156,0.1268437706909488
918,0.3989224608436083,0.4102567989593532,0.08240023779821706
919,0.5051711388064524,0.5082797683573537,0.1105258751469985
920,0.4548278891605452,0.42095631475331496,0.0829844264491708
921,0.38690619488456934,0.38926645570108953,0.08141390990821783
922,0.39063726498287143,0.3945113908968565,0.05516547113931589
923,0.41021247475942046,0.44056631760594844,0.0381217500349851
924,0.4605075500270247,0.4180578013644045,0.0451632441602796
925,0.3532719051190405,0.6344559697817086,0.12395502428367872
926,0.35832384991697697,0.4039138129625516,0.09067460673673486
927,0.449242223573742,0.48168671238507843,0.03079955973048607
928,0.5398609265731004,0.495284762779448,0.0805744587510279
929,0.42714821278648085,0.4095753767999111,0.10070829413410952
930,0.41045049349763174,0.40922810649614283,0.09201945440919496
931,0.41692548936310647,0.4178340263240452,0.08372870676207642
932,0.49056943300114264,0.4938190378150322,0.026330683340363717
933,0.4298760593166736,0.41284106432502077,0.09831764951630104
934,0.7381404213317863,0.37768008493688,0.06881657331157058
935,0.4304038711993947,0.4405205525014789,0.08852645048693275
936,0.5307347217540492,0.5404351976354254,0.07696141895865667
937,0.4959639221522344,0.46685991554922035,0.10893076791118872
938,0.4189973642988498,0.4174694969512115,0.07188300419675371
939,0.41896223864445725,0.41901673076001855,0.09915932779728895
940,0.43265733519676797,0.43824007591204917,0.06330686208818288
941,0.48273206814758074,0.46951157394613097,0.0887713132857324
942,0.37001412082404916,0.3715958791554711,0.10888150714234748
943,0.3668209368012538,0.37189167892012986,0.10326539892710407
944,0.45321079666232555,0.4467589940383351,0.08844410336438902
945,0.5391621999758592,0.5277882691512582,0.15103552762719782
946,0.421091855722721,0.4217214557508392,0.130163363018311
947,0.39733951413153634,0.3968596442161664,0.08795390225048642
948,0.3983417174208894,0.3977652566033756,0.0277706821510834
949,0.46530961593568065,0.4468431553961042,0.09653995599810206
950,0.4032833651911367,0.4117050747284421,0.09767730535754815
951,0.7214959027181304,0.6054326662382018,0.07107291986662627
952,0.39492285908588876,0.3947440348446568,0.06702065766879572
953,0.49037159600911806,0.4660916471205897,0.08726371631290253
954,0.46330082911149406,0.4792569721945795,0.051208295032702175
955,0.38132145755539204,0.38853981616674715,0.11633428008212195
956,0.3813404278559026,0.38480932699338066,0.09396083392814564
957,0.39306017672616234,0.3910256816402744,0.10320985683755277
958,0.45682662004689145,0.4652433623948393,0.11872215856302756
959,0.34352736902841763,0.382978553260627,0.06750122765654966
960,0.32117382684714313,0.34449918681460623,0.0924822155364668
961,0.42742103823364463,0.4111109139299296,0.10055431751864022
962,0.5279468883181877,0.5116660957191314,0.08857015947966024
963,0.4181157595521523,0.4314445523822258,0.05748790533833785
964,0.39401025057231165,0.39429534149138623,0.06608394701852888
965,0.4005764787719903,0.3997897831355799,0.04605657034714499
966,0.46357774555540254,0.43597579266026176,0.09609288058646125
967,0.4228019922458658,0.43662482069781916,0.07999763583113355
968,0.7238342621974562,0.476984839889966,0.09184829392503757
969,0.41717702315518523,0.41034511135123497,0.09774719020368942
970,0.5080446565689658,0.4745759140418345,0.09130217330024439
971,0.5100014809044322,0.5221248899523842,0.12560463877721148
972,0.4181967426926647,0.42376962470648516,0.0989941927732682
973,0.41792119724502474,0.4165912663742014,0.08956047086417847
974,0.42757847827057793,0.4220522044568069,0.08832198879572352
975,0.5063549515191528,0.49662532437090356,0.05253174039561757
976,0.4099909891146546,0.4293744879201675,0.09997331153769604
977,0.34729325196827077,0.6163989294632587,0.05933800919621924
978,0.44822167762257303,0.4298166258225492,0.08271747276194776
979,0.5560055178666659,0.5230707339728168,0.10405929625397944
980,0.45720532123309565,0.47931818674203264,0.1169010809920811
981,0.41372061224040013,0.41320143764660966,0.09556803700331855
982,0.41478966549706753,0.41264222732475686,0.10901194988131116
983,0.4501959561660176,0.42469761982330634,0.09573466464941723
984,0.44565033993205383,0.47011496822299514,0.10634603543118608
985,0.46089851689050165,0.3668091938464638,0.051940717797459936
986,0.40137685149101454,0.3541764378090385,0.10953933231830443
987,0.4669181416534549,0.43609268970391724,0.05119415289217125
988,0.5193130312568205,0.5141306384335258,0.10329914017492359
989,0.40243760918964455,0.40888482968501594,0.08234259378002343
990,0.3889776394583352,0.38924031089879507,0.07685083721114642
991,0.3908049401772967,0.3911313503877869,0.0960172567751154
992,0.46889680987023763,0.45592206307114047,0.09372473942950042
993,0.39239493479550835,0.3944359174589894,0.06627332925338192
994,0.6560250661906469,0.6164850838159769,0.08182499429102619
995,0.39298739177117914,0.3963893016065282,0.05287383932706439
996,0.49420254372217454,0.4903767103672255,0.04666368479547568
997,0.45931808196525137,0.4394579675338758,0.07953529483206621
998,0.38108071685915,0.38417083520264217,0.09975696800760799
999,0.3825991944510009,0.3873149512817069,0.09288894387805278
1000,0.3954488346529875,0.4129276879674034,0.10845771701362934
1001,0.4653314635659721,0.4285508829498118,0.028166417406598882
1002,0.3622743275143677,0.4263379421190111,0.10808743211591451
1003,0.31316334381763355,0.39581192190958936,0.08497818151686556
1004,0.42664666298489395,0.46015768426771897,0.06064917244895779
1005,0.5348514689736751,0.5049761837700977,0.07834771859581911
1006,0.4328050695442289,0.4096796643247438,0.11994062591368163
1007,0.40090094703552315,0.4054646454710319,0.10508864426423072
1008,0.40749638905014707,0.4128606989804089,0.13602019392076756
1009,0.455778436847474,0.49064627900096935,0.03982573692945522
1010,0.4411737537844789,0.41531017944202175,0.052746487935964426
1011,0.5602463763481899,0.41447804993549353,0.049827512516958605
1012,0.4198348139544186,0.4333169914781504,0.12885294899173655
1013,0.49701321734546344,0.5339493230873104,0.09791621796322254
1014,0.5304148719345058,0.4649480917728107,0.013915041452746984
1015,0.42489194629878624,0.416852196371027,0.0776282655960037
1016,0.4194773459161806,0.4197808585099114,0.10726748115539565
1017,0.42510743217598723,0.44307052695531046,0.11635437285922831
1018,0.5091235311682074,0.46474379157447165,0.11695343257230134
1019,0.41946822194704425,0.38611478158223933,0.10793339656448786
1020,0.4396956997240319,0.4026373200805715,0.0871658147910719
1021,0.4345350806213123,0.4648077699041472,0.02910782674186594
1022,0.5423047269548109,0.5314625976552281,0.09272903419024278
1023,0.46068291594336686,0.424653422866099,0.13231424488928287
1024,0.4056201030057247,0.4072586139207218,0.09105426332087824
1025,0.4056165979272034,0.40852643614265916,0.12637156306050215
1026,0.4328055266817742,0.4712626190848994,0.10385900499568537
1027,0.44244417582930995,0.41167927625174283,0.0868117049636949
1028,0.41239262878948535,0.7004465303084134,0.11655777410168092
1029,0.391451852553403,0.40528673937811843,0.1180602818853203
1030,0.4569897929997858,0.48971280608013534,0.1355168466893184
1031,0.5106502951390746,0.466903054662968,0.08678362299970598
1032,0.39581279419253945,0.3896354878549029,0.059397107407903764
1033,0.38451053886526476,0.38799876918010645,0.11502246526100751
1034,0.3875458577848657,0.3970186831310003,0.07044988332574494
1035,0.47022603095065174,0.4562479976628486,0.08713583162285916
1036,0.38786106940684373,0.36006526727415533,0.033348740937865766
1037,0.47966706733056974,0.3175854243207066,0.1286524042256379
1038,0.40024405510387173,0.41693502250308456,0.10408233379789936
1039,0.5101729459737072,0.5111085149930885,0.09496256141097482
1040,0.44060595908448197,0.4160737331789143,0.06982148444059846
1041,0.385698534644486,0.38774252722838654,0.11484657079359936
1042,0.3906252968858983,0.3928660181952679,0.1034427201625243
1043,0.41985086165231544,0.4370620896610744,0.07839949734496579
1044,0.44147711120850763,0.42270502761269857,0.06738120098331853
1045,0.3946467512685793,0.5337309634754175,0.06400333470874053
1046,0.39397256896509525,0.40207284732621507,0.12490812693172304
1047,0.4654104467472776,0.4687108110657978,0.11160099367828788
1048,0.5271876748201807,0.5142909420924158,0.05261339477598439
1049,0.4177988977431105,0.4156505984522667,0.10495166857209184
1050,0.41029533971442533,0.4088634149150452,0.08198445680965474
1051,0.4176021429721739,0.41544018275915384,0.0783547113132631
1052,0.50259671196599,0.4891869109700303,0.03966583399511414
1053,0.425371823805052,0.42544151333422964,0.05750492456504917
1054,0.5228888743857937,0.7074912121799993,0.06233735663303956
1055,0.4353018012946993,0.4271247983269425,0.043383789005624035
1056,0.5450976796218726,0.5141910584038518,0.1333375871919934
1057,0.4765003897309592,0.4996847991478499,0.050632661668782754
1058,0.41756287014252425,0.4187238041740159,0.10473219133332803
1059,0.4191457975748025,0.41692530926181803,0.030865364532581922
1060,0.44300803194479654,0.4228313996008962,0.04562844761970439
1061,0.46492562217818534,0.4943521197340799,0.10818270129868071
1062,0.3877502228049893,0.4062857079655464,0.11508427177666057
1063,0.4014373929194974,0.3760778486641688,0.03737612688878626
1064,0.4677772722076837,0.4251903571808806,0.12712613765069028
1065,0.532817055700939,0.5220082166290756,0.0801256299261431
1066,0.4146554959741874,0.44032726177523174,0.08518769284649667
1067,0.3982420951725346,0.3956788256036229,0.061605091829174986
1068,0.3997564862844063,0.3960353410963763,0.1117549297702332
1069,0.47646648530346003,0.4245068694123063,0.06549505903839921
1070,0.3992675675961329,0.42655614243655393,0.06399001802751222
1071,0.6294257802245221,0.4351118682943733,0.1072633572750406
1072,0.3984270872140987,0.3889888842985225,0.04638506851009101
1073,0.5008350673693018,0.45030132362149655,0.10256155591772356
1074,0.4532767628349015,0.4885672730108399,0.13067151596102347
1075,0.3806007857983723,0.39060386379818113,0.11715941163784613
1076,0.38172994962364404,0.38426182131021236,0.049600770498660296
1077,0.39720945269341623,0.38943307950266803,0.08188896128745235
1078,0.44992141011999853,0.4649436438084844,0.1334473109047601
1079,0.3307389505148579,0.3869132476007341,0.08135033548193178
1080,0.3371384086615815,0.3650661585855409,0.06889639907777796
1081,0.4305759940789189,0.4130654465864394,0.0644072740704855
1082,0.5262320767163062,0.5132657605360138,0.04116427371076214
1083,0.41420149267345374,0.43395664176774307,0.11757669769175916
1084,0.3928379373044961,0.39673279591762156,0.09857528061494804
1085,0.3996262415617158,0.40202347711514086,0.07338651774270052
1086,0.46447060687506225,0.4402260420076416,0.11317906297426673
1087,0.4211153320481008,0.43506528457407556,0.0586827360388174
1088,0.7271385778110003,0.5204275517086661,0.05187462607337987
1089,0.41568465427267676,0.41309002513358717,0.07765063717747687
1090,0.5055427435461413,0.48226378518512414,0.096210429054284
1091,0.5112442063111172,0.514074168038677,0.061803776113226155
1092,0.4178714879190022,0.420933691451324,0.06381931779152046
1093,0.41701790488964974,0.41720673541807485,0.03188702527017151
1094,0.42580186204641224,0.42383573842004074,0.08026038601212959
1095,0.5080285322756375,0.499919521553286,0.061940690410591484
1096,0.4107747405960457,0.42127394963846077,0.01957108201509281
1097,0.3680923724916241,0.41286359748782653,0.07943360084062234
1098,0.4409038487702416,0.43839830691729076,0.06976113423469761
1099,0.5502363747704524,0.5361648658257269,0.06177310687909353
1100,0.4611698493015297,0.4562083461106372,0.06446241668264067
1101,0.4110856488938489,0.4134273050853794,0.04582948515336269
1102,0.4121787192019485,0.4143640587052395,0.036153093158498094
1103,0.4407311908881353,0.4470414010716237,0.03828740779140216
1104,0.45228186074606513,0.4383690421399632,0.09799518432040716
1105,0.39491065373151646,0.5143266575268346,0.09350647989279154
1106,0.3921252391947446,0.40791916445129484,0.02987971623276478
1107,0.4572235311784377,0.47375489388201797,0.027786840171867645
1108,0.5234099684733732,0.4920948608140723,0.029386625466577672
1109,0.4045232351542748,0.3988077622287778,0.13601540594493075
1110,0.38775962916038953,0.3931378766899146,0.0947477113369081
1111,0.3896580794574417,0.397915707416699,0.066906294199111
1112,0.4642216963138108,0.4649529553249311,0.12415939513803746
1113,0.394055523506628,0.37469860557548196,0.09957128500220185
1114,0.7046516891070448,0.31893993678706967,0.10665883282375299
1115,0.39040057983428667,0.41665784823692165,0.08128686753430245
1116,0.4883342652924145,0.5094396583858624,0.038648030771458675
1117,0.46277719443072196,0.41335488993123215,0.08732276873413956
1118,0.3808401079068937,0.3861790052583126,0.11140467479697347
1119,0.38202076312530875,0.39016459274410265,0.09082213377559788
1120,0.3941423576233253,0.4415260690449604,0.10370018744600254
1121,0.46535432391887177,0.4086035750972936,0.1259137523254772
1122,0.36033723071557466,0.6709008515082936,0.09738903402316587
1123,0.31578027824375743,0.39938707499499115,0.0887896018552997
1124,0.42892695220299026,0.4785762337236561,0.11305967185804572
1125,0.5364135548125548,0.48969628943667165,0.0669387628346344
1126,0.43348886569255896,0.4034172973890219,0.07530220169625221
1127,0.40268275579405544,0.40305231382015194,0.08854624068190664
1128,0.4090780359591226,0.41188042966261784,0.07398454020102684
1129,0.46022964887285345,0.4899871061867226,0.0896150602384847
1130,0.440080712824122,0.4120225327053403,0.053427324659075
1131,0.5966495948686168,0.409932076533154,0.052781523747546716
1132,0.4221522738663074,0.4320574839131669,0.05079355701201144
1133,0.5003817862024894,0.5329887691095281,0.10373451476378073
1134,0.5305864814015504,0.4704029289395042,0.12587213094621771
1135,0.42536717362192733,0.41631244352382524,0.029414659171870743
1136,0.42046737490014074,0.418828245565928,0.07588156337252186
1137,0.42628701790903734,0.4353212514319408,0.08478829131291617
1138,0.5101111348875992,0.47876604943960477,0.10704183939556544
1139,0.4208696748791694,0.3792822240397915,0.10692638709667394
1140,0.4262773185942397,0.3588923083567169,0.04057102579636131
1141,0.43622334107148286,0.44800139920373994,0.05606278303916269
1142,0.5436872358637506,0.5358391381883839,0.11595577359756093
1143,0.4599664475423383,0.4341909975532725,0.04313120433298946
1144,0.4061790329338669,0.4050780383070617,0.0655648604828477
1145,0.4061733543366588,0.4059093566023221,0.05897594653954231
1146,0.4337316313910121,0.4482677554605904,0.11079520297196732
1147,0.44278873184871426,0.42411498094661126,0.10974595576786147
1148,0.4114263063679403,0.5464032411956006,0.12843879137739694
1149,0.3892444684467975,0.3990495134709753,0.07127932414578464
1150,0.45531440119948996,0.46378409284884514,0.04682498815690879
1151,0.5081424339074866,0.48881443091012244,0.10431600902333314
1152,0.3936614122008617,0.3927630208937263,0.07706339607678342
1153,0.3827462564027593,0.38616340996647125,0.04418262634810118
1154,0.3863785161863562,0.390015072657408,0.05601471999213413
1155,0.4693062575617092,0.4655272170402014,0.09541225714217917
1156,0.3854355995584282,0.3848011322283581,0.05682175604876387
1157,0.45545190389710577,0.4059154522441589,0.09845184849471195
1158,0.40346674498998336,0.401449754475384,0.0633935381730027
1159,0.5134385824489275,0.5012816547095451,0.09472019010002697
1160,0.4385991337680364,0.4344239936685176,0.11046625921249889
1161,0.38693372308370455,0.38656219195747477,0.08887943632326573
1162,0.39176040421644454,0.3911133485378525,0.07520018362767103
1163,0.4259061178737408,0.41655884800792364,0.10672436227267929
1164,0.4366502125040779,0.4413243292506347,0.11320582491017733
1165,0.43897435691017794,0.37231975004751716,0.09805797841091418
1166,0.4015871466429134,0.3844305415864313,0.08969519975916698
1167,0.4739955060454346,0.4514249945525155,0.04508866236470397
1168,0.5222918375269748,0.5237425669174604,0.07735614546844737
1169,0.41657153476129394,0.4220360607464647,0.10879625616578117
1170,0.4118239019247507,0.4095661043039873,0.048858383713754915
1171,0.4196018266972944,0.41546647557427474,0.09694877168110698
1172,0.5055796426539728,0.4815177651033281,0.10359613624395714
1173,0.4207882122376726,0.42915457724998873,0.12543478244994263
1174,0.42487986083263274,0.7303149586518548,0.08314914978724036
1175,0.4417459364604105,0.42853860402306276,0.06312437202598795
1176,0.551894348569141,0.5133257565785302,0.037785123313410704
1177,0.46893630800092956,0.5002792959003388,0.06825693489452067
1178,0.4184413842383433,0.4207658885071197,0.08890753227785117
1179,0.4204092656109234,0.4190346067683999,0.10639344969299257
1180,0.45158400447172575,0.42632020800224457,0.09776540999671904
1181,0.45621454079234136,0.4904607522936878,0.033729725344536776
1182,0.4507405215223501,0.39427603449741444,0.08847574385823606
1183,0.4119188505542355,0.33948040327937457,0.04812639841500576
1184,0.4782926704424074,0.43383818303177024,0.06091904092691966
1185,0.5268652945904121,0.5243261210510993,0.09732485766383804
1186,0.41163592668988414,0.42577812345895005,0.08664332500382353
1187,0.3993132326535278,0.3967781109865317,0.07384899829429847
1188,0.40101571525989976,0.3977240853860411,0.1389297658669961
1189,0.4819004244337768,0.4499355582860428,0.03657540662540575
1190,0.3971390207401603,0.40627547163408584,0.11023574432458347
1191,0.5162296879511533,0.6916883541364865,0.10648804756899359
1192,0.4029159281914845,0.39692556207981355,0.08348552848615962
1193,0.5089654414084015,0.4821361679450703,0.048693481172238796
1194,0.445608404936194,0.45341975115286204,0.02722105951853501
1195,0.38093983166878487,0.38491299328253303,0.052734119284510494
1196,0.38259983411502385,0.385743631481683,0.13371191860487736
1197,0.40394872966603323,0.4018715169212993,0.055587392857421716
1198,0.44252929454329737,0.4368255216868071,0.10331365623762168
1199,0.33917129297215176,0.3559542469129082,0.10811634592175809
1200,0.35545557601665534,0.37438678436209816,0.08791967018978766
1201,0.43568281624880034,0.44073405923703035,0.08809356871023119
1202,0.5233932191170906,0.5052235175195663,0.07838738904040768
1203,0.4095046817902094,0.40447994147904287,0.06720892123598884
1204,0.39194415953570316,0.39557179646874985,0.1023981761754345
1205,0.39890682048767023,0.40214923850265116,0.09490353699490676
1206,0.4686941635045957,0.4780414945082021,0.13377862787980102
1207,0.4185644661331176,0.4106668195460038,0.12103085872519774
1208,0.7426018953996637,0.5344776046947329,0.06934233142090096
1209,0.412821009780832,0.4213421435352084,0.08862480185824195
1210,0.5036024658448086,0.5205914183216765,0.03461303571685764
1211,0.5089571503586011,0.4739310821282965,0.08814243237622679
1212,0.41510836259287476,0.413957339841185,0.060194610541443636
1213,0.4143020604080293,0.4170413814660602,0.0742991318125288
1214,0.4227693366369113,0.43256203937639615,0.050683102212061945
1215,0.5078442236124346,0.481770539966376,0.09434160860384154
1216,0.4163912978934947,0.38189209454112294,0.09145759872317381
1217,0.4128518860519529,0.3636258094169298,0.1382587172741427
1218,0.43758646892842656,0.45412956958718653,0.08059391689572827
1219,0.5479928184442399,0.5435476169454321,0.12030343800114501
1220,0.47040295515906594,0.44284368664845053,0.05838633540283297
1221,0.41212195181542965,0.4136083155222009,0.04374485453237681
1222,0.4130146325597085,0.41490936830421277,0.042461763432567
1223,0.43236538120448054,0.456583236555109,0.12127898764678374
1224,0.4658076582862446,0.4346003358963362,0.08115135664924229
1225,0.3589605386413165,0.5393146512325906,0.02229788153404379
1226,0.3648168630374975,0.4081658505496205,0.10334334262581428
1227,0.44427353395771163,0.4727354625409964,0.11872006408332623
1228,0.5291734286459971,0.49971666525523817,0.09021314830303145
1229,0.41073728879676263,0.40102090902497434,0.03258811020889845
1230,0.38735791999146996,0.393152625767355,0.06585462696585771
1231,0.3889080410016086,0.3958463013884779,0.12206488611020333
1232,0.45179222530412555,0.47019370249870207,0.04411767709757583
1233,0.39904938144642665,0.3913382460977952,0.08067891302621069
1234,0.7172975330712984,0.4293888475883404,0.08770969786273569
1235,0.38999201203453804,0.40442141613108196,0.07891185908761708
1236,0.4802944739029882,0.5022762901866787,0.0751997367030982
1237,0.4732570224185725,0.4349356347864838,0.10939207544780344
1238,0.3833164394680886,0.38573286291315223,0.10939903577006185
1239,0.3830790597640812,0.38904493333494383,0.06261025642485962
1240,0.3930603452256636,0.4139425119989706,0.060809052047216226
1241,0.4701708881179566,0.43487512757157853,0.05406182004028282
1242,0.3732664832892092,0.37689136610242246,0.057243520485273425
1243,0.3132923365001248,0.38448022917361124,0.0997980911821922
1244,0.4247283621939779,0.4489809367494765,0.10899881059545756
1245,0.5334647002096975,0.5182329984834728,0.03346087574641528
1246,0.4330016036044553,0.4164166231411345,0.05229648715171704
1247,0.4011787036311285,0.4042220226210479,0.04158059685494954
1248,0.4076769124090832,0.4105268952623301,0.10573200408955327
1249,0.45938933470218735,0.4772033943512759,0.07549593187014075
1250,0.43743850210965163,0.425194389031904,0.09188551007835469
1251,0.6212041666679976,0.7267415830039771,0.10139148321785173
1252,0.4215955579049886,0.4206173044103796,0.0672456735559691
1253,0.5023405666529691,0.5037140765677295,0.09643114786934588
1254,0.5250931487456237,0.5032256398303027,0.028973688612660264
1255,0.42343349446500855,0.4188356517943307,0.09741643673920124
1256,0.41992560184305006,0.4170876012372371,0.04321320480524417
1257,0.42641653929615353,0.4234000918371972,0.10769683975334424
1258,0.508129557109566,0.4991713861320126,0.049090412311294004
1259,0.4158527421555509,0.4173389528683976,0.06366360759994477
1260,0.36947322937075433,0.433142726018086,0.07983451250131607
1261,0.43976401331932113,0.43109027421115753,0.05072433852232291
1262,0.5466410544234108,0.5284361505145856,0.0821208719954571
1263,0.45069750745133397,0.4552801709964276,0.05434648858894618
1264,0.405806718304931,0.4055221491467379,0.09679512963842876
1265,0.40629368315487924,0.4055895001977914,0.12591801231184602
1266,0.44460399686863716,0.4289593314633888,0.12258004185148358
1267,0.42995566298706633,0.44087960030492956,0.03553643638135151
1268,0.5350917136913463,0.3984226884865806,0.10458925023239572
1269,0.3985773458354005,0.39122228585592433,0.13395156039797163
1270,0.4726849211166243,0.45156434194580586,0.08183552350882958
1271,0.4939554698468326,0.49128033989405395,0.0501269629122172
1272,0.3902765787775494,0.392790714276271,0.04880227069549676
1273,0.3845157850173524,0.38557516052484486,0.06391398713611457
1274,0.389913244236773,0.3900752877869915,0.09470196006418997
1275,0.4690879344439641,0.46193743482920846,0.0316815322586724
1276,0.369935356865001,0.3780226756068469,0.10831158289526926
1277,0.31246357875410036,0.32292965894265735,0.09802055846093904
1278,0.41274218939014184,0.41178906570076357,0.09727295750926154
1279,0.5201890171448937,0.5069275839029769,0.06658911489383904
1280,0.41975156877107356,0.4139805108340677,0.10603763062156664
1281,0.3862192044008578,0.38875141439895045,0.027830347775626596
1282,0.3916438708768162,0.39399048470098097,0.08716084497791061
1283,0.4446710375683641,0.45156437625262336,0.07924295319812213
1284,0.4179925262350389,0.41080622825491486,0.10893194537508935
1285,0.6573021794196984,0.6979407989228174,0.12922507985117493
1286,0.403602507434232,0.4043278907221709,0.03366189306731984
1287,0.49045040949628593,0.49404260547289125,0.12808165716818695
1288,0.5036700029424157,0.47539235119838763,0.04554791668674623
1289,0.4093562642735228,0.40538462559269195,0.04724109554188452
1290,0.4092306858678355,0.4084130227076369,0.07774498044718983
1291,0.41908598295456456,0.4221757767544976,0.12470570242328444
1292,0.5021331146385182,0.4791918097520349,0.06928154965769392
1293,0.4089255498617762,0.3809050360881684,0.11335877379645554
1294,0.35858906481965924,0.3595649255900357,0.07847373710294386
1295,0.44556008625052,0.45103345683166096,0.06473915700898533
1296,0.5554357844610803,0.5411560663530278,0.04194939976384025
1297,0.4641259881341433,0.44137384653263034,0.10314721022555969
1298,0.4178388936664531,0.41511236738532875,0.1265860566203142
1299,0.4200145878499191,0.41782947737085163,0.10521252403343319
1300,0.4511147140532209,0.4645679996829092,0.0513718909591738
1301,0.4588160625221731,0.4356505573143181,0.0785801033089481
1302,0.4206258067598231,0.6190420513282074,0.1242135124939013
1303,0.4052913817887064,0.4276841046980162,0.0963326053602694
1304,0.470016079330451,0.4944913019784549,0.1221147866327158
1305,0.5315342281882357,0.5122674933726229,0.07317024433325402
1306,0.41380864855983523,0.4158041415274669,0.04814259447970409
1307,0.39761298260877076,0.4077890506608277,0.09503463237085348
1308,0.39897551601252645,0.4098652872060219,0.042321048659604885
1309,0.474377407215288,0.4822352570546279,0.10904887443672977
1310,0.40005680471448557,0.3995094269232943,0.11376209073286249
1311,0.6836380054240166,0.40492122198307845,0.11780681412414433
1312,0.39617626233506353,0.41351705175073417,0.1016982623372624
1313,0.4951810617023972,0.5100967489879885,0.08544667160426542
1314,0.4589308526183744,0.43560874851764253,0.1283320621176615
1315,0.3803423620217151,0.388056708343939,0.053634821749000465
1316,0.3808336623346418,0.38989955134458976,0.06349787002009567
1317,0.39454218388267814,0.41727811380324253,0.12826301886886354
1318,0.4539526981415136,0.42836756166955203,0.0902225949123353
1319,0.34348179873669016,0.39853757420782543,0.0671624791223391
1320,0.3242059129994729,0.3853301964379665,0.1286890259745937
1321,0.42452714687927495,0.44787682396806094,0.0896083110865339
1322,0.5246948827257499,0.5095732370115024,0.057633758477355974
1323,0.4149331587556031,0.4067275177990104,0.05737517183643999
1324,0.3911850474320878,0.39669602987884844,0.06950593905175546
1325,0.39792887489323625,0.40299450970143746,0.11526615720974946
1326,0.4596740484581495,0.4744282012315858,0.12082781615097614
1327,0.42210403574131394,0.41535384918801466,0.10234324555389439
1328,0.7013757230580525,0.7026691125954617,0.048687773468167744
1329,0.41350257291680625,0.41485889758364836,0.030235052857542535
1330,0.5003962953105793,0.5032345180607295,0.03693296136392892
1331,0.5155251480428854,0.4965281709704823,0.08293966792237802
1332,0.41748094898515464,0.4147042477055721,0.04692429219985232
1333,0.41548765932248255,0.41438612652704376,0.05728501363451371
1334,0.4234864678626328,0.4217834341732325,0.0734810315450542
1335,0.5091271184915445,0.5000647977070726,0.09886679128904353
1336,0.42040218305590205,0.420600470248118,0.07727037847138983
1337,0.4281455862414798,0.48954113291633605,0.11508685954713528
1338,0.4387075544305131,0.43407037511787727,0.1115350898939982
1339,0.5478472417376168,0.530605011969925,0.10049670012326711
1340,0.47192083948016295,0.47698674108530337,0.06237531077935476
1341,0.4127051415504809,0.4137755661617283,0.055803252221249655
1342,0.4130993954947325,0.4131881248750089,0.03369243550528091
1343,0.4328294069338755,0.42373133545729724,0.05950059550946051
1344,0.46606893998467536,0.47693248311177683,0.05502272500948586
1345,0.35950559728723663,0.37939393118099307,0.08737095250529854
1346,0.36699298274473735,0.331439171776438,0.069336193266873
1347,0.44547929989407264,0.4286856337496251,0.058118101307806425
1348,0.52856440110345,0.5185956801801279,0.1060380631812934
1349,0.4099565165808827,0.4196440477027701,0.04915454188433186
1350,0.38770283077580003,0.3897240148713085,0.03366123273737862
1351,0.3893513271749014,0.3911204326496881,0.0798845565003698
1352,0.4570375076879315,0.43694393250981156,0.07984414662154543
1353,0.3969036469192515,0.4063258932043171,0.08055681163008904
1354,0.7245484510928525,0.6196929987945138,0.11231657031854825
1355,0.39319907299989854,0.3935832363350996,0.11516384121216142
1356,0.488712599777669,0.4701834764602505,0.12307365550192377
1357,0.46405621702165434,0.4690012056606866,0.05950242417069502
1358,0.38350765524595,0.3882714300539225,0.0494999611815224
1359,0.3848938046075704,0.3881929251242744,0.05714517820315204
1360,0.3986916923755758,0.39829620065748306,0.022946905294170095
1361,0.4593281073487152,0.45924591405433957,0.11802056533620049
1362,0.3498712747697813,0.3629904951815175,0.12238362361062415
1363,0.3373976585902937,0.338737808702432,0.07603637455814488
1364,0.43630163224364615,0.43285813333795997,0.08551735776232788
1365,0.5315455237764283,0.5192138161906326,0.08049356543345038
1366,0.42020208869390485,0.4196958677535112,0.09538944083611099
1367,0.40138943459773857,0.40329507752513805,0.030411434375226268
1368,0.4084069939744457,0.40961479875408624,0.11041547919777188
1369,0.4805906277971236,0.47716095741428877,0.10660958660532557
1370,0.424503562338611,0.42188033827691895,0.05639841934378335
1371,0.7490515524603195,0.6733712473232757,0.062460549355300946
1372,0.4206950076426107,0.4255833146593626,0.04727785904953759
1373,0.5189693022767871,0.5191818203434851,0.1401647529944516
1374,0.500014534603225,0.48013575524653873,0.10049172827270181
1375,0.4166066257706924,0.4179906985881625,0.01403160466664967
1376,0.41709385690696044,0.41986457926559195,0.11276051345753255
1377,0.428311839887791,0.4367789626146218,0.09884840962988498
1378,0.49639844731252114,0.47187143950902666,0.0757128582454181
1379,0.39093655653660353,0.3806570128426947,0.08698498699000765
1380,0.33966392268506174,0.3986368068137166,0.043818325697615346
1381,0.4487773103192606,0.464136777187919,0.05406702787172271
1382,0.5512604111284186,0.5270125765253076,0.04787980743075687
1383,0.44242776456560184,0.4214617918417798,0.10470850942759823
1384,0.4059330290916269,0.40777817233864877,0.055326510405207266
1385,0.4065274174796847,0.40924834611510663,0.0648569885891122
1386,0.451363341793122,0.4796345943515016,0.0766501107052925
1387,0.4268497752141449,0.4087043277443979,0.1044787600265631
1388,0.5651915831630242,0.5021083402806644,0.04592214312308537
1389,0.39787833570101216,0.40813734658841516,0.06832825846203518
1390,0.4722793252566032,0.5033703497038258,0.029702979700645834
1391,0.4947603897821341,0.435572784697697,0.0366510262387196
1392,0.38993607335044833,0.3855634931938109,0.06559856930333027
1393,0.3836381133981931,0.38678575711898244,0.04555713318024135
1394,0.3884745047333853,0.41620792019418595,0.10850146508547096
1395,0.47076432383697764,0.4170020385810148,0.079484077381598
1396,0.3796368767001622,0.457555152101944,0.05403059333117284
1397,0.3342117741828152,0.38241173241937854,0.06954019118443255
1398,0.40770158859156,0.4483362886765272,0.0730758043148706
1399,0.5177526573049283,0.4837619293755653,0.08046539167359171
1400,0.4228203256111026,0.38913584509885946,0.12671422094962617
1401,0.3852954593357236,0.3857794074668044,0.11394810694460494
1402,0.3908508024067803,0.39326205247456425,0.07280273681726886
1403,0.4402845554874223,0.4705279883690938,0.09977647292442472
1404,0.42013111288943383,0.39312424073526975,0.06831076179220064
1405,0.6257238619028914,0.36307860466184294,0.10369548134704301
1406,0.405434723513068,0.41753956750711385,0.0946225681509948
1407,0.4887659137327671,0.5199344281363414,0.039722093432621876
1408,0.5065147192821758,0.4480823468292533,0.0585007197762068
1409,0.41090772360750916,0.4044279042494514,0.10329269478625118
1410,0.41050759480178045,0.40977120700707714,0.05863712903764889
1411,0.4203476582127239,0.4365308211798308,0.039849082992692096
1412,0.5023635793074646,0.4593868514759223,0.12185829914594548
1413,0.4057352754613964,0.3894984343034603,0.0976026792405766
1414,0.34850693652276776,0.3970197453897246,0.11254289882060095
1415,0.44427845512389663,0.4631017850712398,0.046726681899002094
1416,0.5548032005279432,0.539430028354222,0.058767685950452835
1417,0.4620352046588797,0.4342636488577385,0.13379637881420908
1418,0.41593144836260965,0.4148370144888629,0.0277557065216054
1419,0.41823428793353434,0.41772189646577895,0.13224151953341684
1420,0.4489194162446938,0.47016286826203446,0.07493534682489078
1421,0.4591825620996548,0.433482053666446,0.07886176669841892
1422,0.40613550009992694,0.6227840412290983,0.08691914967817961
1423,0.3998202112651563,0.41284119805251196,0.047546107282340044
1424,0.4648101983333134,0.4776455814402686,0.06968673544213347
1425,0.5340492890000486,0.508882429494521,0.11596325376450856
1426,0.4150477056934272,0.40659926859579376,0.125383117410751
1427,0.39638175592110503,0.3966968237558769,0.049468139870716084
1428,0.39743541782536185,0.39849775700885526,0.03912953768044685
1429,0.46578601158204624,0.4703621613126724,0.11224779223372648
1430,0.4032561158103327,0.3986911437521904,0.10681797398137088
1431,0.7362516964726412,0.659068511659569,0.11781767460036405
1432,0.40044829999799947,0.39804766090357746,0.06289359067642973
1433,0.4888562107574881,0.48555618607177775,0.07386661613497708
1434,0.47666282074862076,0.4625323644027204,0.1128755292564319
1435,0.3857830292231097,0.3848785510761198,0.12580313419115308
1436,0.38405833695908753,0.3840134817690962,0.07179709671131218
1437,0.39317840945219273,0.3924082364769089,0.07962674047127484
1438,0.4675242859462049,0.46312197436539637,0.09059123341039861
1439,0.36861007154032643,0.3786491563956198,0.12470740068004665
1440,0.30882153296185777,0.33195577513535257,0.06056220823511425
1441,0.41759067338878886,0.41108080471842734,0.09057304728053117
1442,0.5251154105710704,0.5126591722444357,0.09693035893663844
1443,0.4230174167124049,0.4334303914943849,0.02879015529197114
1444,0.3923244819541376,0.39377626727129633,0.04940229920431096
1445,0.3987712970622972,0.39916856267627565,0.052800018894239534
1446,0.4536667309831095,0.43031703262298726,0.09247664795314531
1447,0.4262798282913154,0.4443859176385504,0.0805638335905211
1448,0.6604531431674271,0.4016874282891856,0.06957897505330374
1449,0.4125645482674485,0.4029041498008251,0.12122090364383042
1450,0.49670234337477726,0.4663662183733174,0.1224728874938636
1451,0.5139921650472212,0.5271038634998463,0.07693303899746937
1452,0.4171840656969904,0.4260816725412715,0.08769042112347133
1453,0.4154411779613043,0.41628430700653074,0.058044144271757796
1454,0.4236411721477027,0.4215365465982205,0.07935397915894073
1455,0.5076609338663939,0.49332974723420264,0.10920910004287594
1456,0.41525284481143543,0.42789719505448776,0.08912838760958944
1457,0.382851453535174,0.6575500261854769,0.07237114500861414
1458,0.4389248237461508,0.43247072837641276,0.07540721084578386
1459,0.5488229355772519,0.5240080881818577,0.0856430990276595
1460,0.4654571396945173,0.48227963420588915,0.03215970423005237
1461,0.4110044808469513,0.4159074125121235,0.11863889392126993
1462,0.41182590850850587,0.4151654106198005,0.04556306137664412
1463,0.43532088346400455,0.4283210768047072,0.07500402870892257
1464,0.45858158855746156,0.46727438542743915,0.11015309998188968
1465,0.3635116748077466,0.36713444189767597,0.09632359460500857
1466,0.3767427081107365,0.37200173258895164,0.08082056535838972
1467,0.4482898458841894,0.44464205111117805,0.09112706683139359
1468,0.5250906966704433,0.515780874921468,0.08735997617182306
1469,0.40593447728475573,0.40954879228688545,0.05317403250297684
1470,0.3865365763315691,0.3924012052788627,0.09654568612297239
1471,0.3884325232504784,0.394006126309129,0.0654865784717847
1472,0.46001696471653,0.46184137715084217,0.09177009223456484
1473,0.3940924348772986,0.39555400283992126,0.12667592317405493
1474,0.7135908524486115,0.579747468803459,0.08500193626969253
1475,0.3950855804849428,0.3982912823635236,0.12694931008472848
1476,0.49377891102051974,0.49318989043304484,0.09072529898904212
1477,0.4585566195393067,0.4375380716302597,0.08771596633402631
1478,0.383751632584972,0.38429602912443916,0.10369501547875219
1479,0.3857706542424799,0.38790457682408763,0.11330686941958493
1480,0.40374290574719773,0.4146282760570811,0.07430060295992531
1481,0.45065648151663895,0.42658977251311336,0.0964066968097119
1482,0.34635060570641374,0.43078238826717186,0.09052221578579786
1483,0.36479345919632966,0.39585235047957834,0.09396109602888386
1484,0.44628341414985406,0.4630470991008975,0.10093724213770812
1485,0.5255786346872923,0.497077165375702,0.10338279061227328
1486,0.4136620523107636,0.40606114436050456,0.034173869045670845
1487,0.402421927336411,0.4044467962840689,0.07100300620000449
1488,0.40977132746696976,0.4135735425266682,0.02831867165446635
1489,0.4929665592800969,0.48626220956631205,0.11280433366248678
1490,0.41885734316519396,0.4023652142903483,0.04503455220993447
1491,0.5602855083108443,0.3441940367978831,0.07779341206499382
1492,0.42789770885489,0.44419103352673217,0.06672798298777119
1493,0.5371814403718892,0.5391206232824906,0.06158750428046909
1494,0.4782495389120237,0.4447318430620425,0.03828398814482479
1495,0.41579820618849694,0.41788508738437846,0.07172479201015196
1496,0.4185541210482516,0.4216992737934444,0.02920824451153717
1497,0.43925103185132175,0.47274656858108244,0.07045621096860435
1498,0.4763734105961147,0.43617858805453114,0.11452713502065763
1499,0.37386895826703537,0.7034106114502406,0.04623322105186872
1500,0.3888703362823235,0.41917579476286115,0.07697895581526834
1501,0.463989954910234,0.49735848271293537,0.09675920456670052
1502,0.5474807532197131,0.49521327463948084,0.09733068368783782
1503,0.4284635594863804,0.4095955722054079,0.06358905348401118
1504,0.40508347673626677,0.4057058696619832,0.05204693452728433
1505,0.4062201442270159,0.4106103031408297,0.06941798978425033
1506,0.46739551704208426,0.4784387463357793,0.09629679672982272
1507,0.41651454159142764,0.3866347395699715,0.04715608626634544
1508,0.7138876118656242,0.33496097500773503,0.06189378738817626
1509,0.40249547013226794,0.41895771174674534,0.08322945867654287
1510,0.4869157220096425,0.5150917679868555,0.11332991970153591
1511,0.4870641723256046,0.429439865388513,0.07972179801408953
1512,0.3894766831264129,0.3866224621205331,0.07018715825700493
1513,0.3850874885123391,0.38793753493077066,0.1070321813216074
1514,0.3908352037310562,0.4155552602128175,0.06803717256650506
1515,0.47087641386496537,0.42529820686974873,0.05635789016472733
1516,0.3765083188466204,0.3807483486388552,0.09290186927773776
1517,0.32508301049874466,0.3760245171178459,0.10720507784436722
1518,0.40545969379479685,0.43773848311874974,0.08689440240201612
1519,0.5157369847433049,0.5012401707365888,0.09432802058094066
1520,0.422451721970587,0.3981485724956688,0.09387581862252332
1521,0.38352243779183315,0.387117973261224,0.0653344690231429
1522,0.3893562547480275,0.3929369396575493,0.13906868805318823
1523,0.4334964253576413,0.46354496384163035,0.07483920648849623
1524,0.4238676991208393,0.40553107851270576,0.0732187886825203
1525,0.5396274313075001,0.6946251604378858,0.06992633326255425
1526,0.403081326063789,0.41022511621126767,0.08527083262273699
1527,0.48031931672391515,0.5000777963082301,0.05637923558598651
1528,0.5159848861719613,0.48400174286724973,0.13732972200619503
1529,0.41345135738108085,0.40945489377197486,0.10994000469696337
1530,0.41022711441070003,0.41150090435837294,0.09543626225999846
1531,0.4183703137401309,0.4226561394177233,0.10430623295468731
1532,0.5051369552093413,0.49093611354583866,0.0658647843712288
1533,0.41973973160225597,0.402713000626442,0.09327381712881433
1534,0.4447105922762705,0.3481461805997861,0.06754259558673936
1535,0.43863664016529214,0.44600300487829836,0.07842212343889508
1536,0.5489036017253797,0.5442816489539541,0.08602192077243842
1537,0.4789350452389588,0.4566992577626845,0.025186104179788078
1538,0.41749511811570783,0.41754748220369076,0.020604114729376826
1539,0.41883125491603523,0.4195616553193373,0.12074519018924504
1540,0.4372178557642865,0.4484347658453266,0.09391335351570683
1541,0.4787523177182129,0.4549870665131901,0.09114187807183097
1542,0.367445456079036,0.41185566551592334,0.11070929603292205
1543,0.3633787524619637,0.4031173862324039,0.0745050323265301
1544,0.45072264861155464,0.4613765923546542,0.08882554928708732
1545,0.5421201460861894,0.525042246962466,0.0668046744956651
1546,0.424843269460636,0.4167474718333777,0.06972657913654552
1547,0.39631561334622734,0.3991139776738537,0.04895285869258213
1548,0.3973036310326874,0.39996776206635,0.07675935672596547
1549,0.4513470970541241,0.45887929632991276,0.1066227021639766
1550,0.41179277420297944,0.40726642897855336,0.08141246477072961
1551,0.6438090979628882,0.689657519875775,0.08520241851717444
1552,0.3947660277197088,0.3989762221030644,0.07633125414703974
1553,0.4763496876374974,0.4761185506260377,0.0629153445901552
1554,0.4830363702602464,0.47619184624517863,0.08079798941916165
1555,0.38603653884870126,0.389447806237195,0.13383244684444698
1556,0.38295922421914774,0.38661717181138067,0.0865408313575775
1557,0.3904866080639753,0.3933115230416985,0.09009433023139032
1558,0.4687160977349326,0.46659254116897886,0.1133567718941885
1559,0.37015885426554396,0.3838983496281959,0.107056559244755
1560,0.3077124378010495,0.34567917012037963,0.13740480594342683
1561,0.41528522484149333,0.41468439679973446,0.0929560391923071
1562,0.5225248241276828,0.513683044412447,0.1041511074981336
1563,0.4204694806823709,0.4290205111599874,0.11349614442641424
1564,0.3913767615685936,0.39646252281857186,0.11236762939704613
1565,0.3979873838593525,0.4019503304411963,0.10714058737079211
1566,0.45780915383402654,0.4471795548919728,0.11767057792731148
1567,0.4211248547576416,0.42837078158401476,0.11386729410840087
1568,0.7224186317775304,0.6176569938100337,0.09013477611701542
1569,0.4109683516909818,0.41568502682011865,0.08446314890024206
1570,0.5034907932900439,0.49314086594591167,0.03147366051325658
1571,0.5012325871133717,0.49976354685267843,0.02460494686429496
1572,0.413402634023053,0.4183213786009641,0.12642891718000057
1573,0.4141799944302934,0.418284461837107,0.09474239607324655
1574,0.42506180242380187,0.42796158658526173,0.06232118854216095
1575,0.49967532790083447,0.4914628813509446,0.06282843319010112
1576,0.40030018294571734,0.3974685994169307,0.059534440574897714
1577,0.3393410915130035,0.3575789325773743,0.03341565399053665
1578,0.4496471175165573,0.4541026168957286,0.07243462177621791
1579,0.555703049966623,0.5436676086075859,0.08913225342296344
1580,0.45144570256979455,0.4433609534154255,0.08119420468622773
1581,0.4129310274687248,0.4157982684102397,0.06449153314627698
1582,0.41426085483790587,0.41701516370306313,0.09651167071125695
1583,0.454224773034156,0.4656868184106301,0.08480227266012016
1584,0.4403225858794395,0.4285682601800149,0.11714850276691666
1585,0.5067985129733683,0.6702873588728974,0.021412604790697527
1586,0.404850669718683,0.40958033028575924,0.06980849023105537
1587,0.4738103769183757,0.4838334615069776,0.08770551860387651
1588,0.5109470058377068,0.4874718000765186,0.08991697414809445
1589,0.39929527187490965,0.3975556262983082,0.0720867252597548
1590,0.38931666679893906,0.39266659234074963,0.15040540154275034
1591,0.3924039180213945,0.39696706600933285,0.07540531322682725
1592,0.4748873275821771,0.4683512425575883,0.09012892833863727
1593,0.3879549032825359,0.38396159276837327,0.10919198135932257
1594,0.444464598346205,0.3419578836783109,0.08266600856077753
1595,0.4005729779749444,0.4096045200619709,0.10695841301241846
1596,0.509552774387647,0.5074385593004376,0.06843387685163282
1597,0.43228257455721175,0.4222547343922718,0.15303289782175247
1598,0.3804774083669853,0.38556719797320393,0.06694120359971376
1599,0.3843187584564929,0.3893591264838697,0.10775923700405203
1600,0.41763514369966315,0.42809024392134964,0.06919676220894742
1601,0.42700905774392917,0.41834079593354834,0.08511182080637496
1602,0.43194964229548716,0.5265986932549457,0.04558928033775549
1603,0.38974941363339966,0.40202170706778706,0.12064909885688545
1604,0.4616557161404541,0.4722549327969614,0.05435732857009539
1605,0.5142615110364904,0.4965117982519347,0.10262167288309233
1606,0.40642756339980957,0.4072155978937916,0.07764332372405242
1607,0.40088740377985543,0.4063417138598727,0.07111958321484878
1608,0.4092350128919293,0.4151711691756559,0.11389935097818768
1609,0.4961409785753036,0.48857476618254414,0.048106403645250866
1610,0.41570508721114297,0.4050112083301898,0.09439184410426354
1611,0.4937795842259882,0.3488501225609296,0.06988360786324488
1612,0.4283601944750869,0.4437638544361351,0.08162680222441793
1613,0.5391590103970563,0.5416272731292723,0.0855629794283782
1614,0.4789885148511711,0.4525144853751025,0.10433870310616888
1615,0.415226396441175,0.4190914080105145,0.02708733376279373
1616,0.417800508098057,0.42252113034370165,0.09327811417331192
1617,0.4350307515098829,0.46164770599907123,0.04991291773431047
1618,0.4857548297751475,0.4474324494598343,0.0497773093095092
1619,0.374687870148701,0.5530523843458096,0.05515896747690486
1620,0.35437336616765136,0.4166654449019632,0.10231994686452267
1621,0.45257410864146574,0.4807807422589345,0.0752715666756514
1622,0.5503307554178618,0.5162327276321095,0.05233510754230665
1623,0.43688956063514417,0.41521425281877833,0.06204920345823912
1624,0.40408134474252855,0.4052214620064123,0.08025472207785478
1625,0.40497553485799453,0.40717333573027126,0.09100205198731563
1626,0.4514519474937122,0.479062357456823,0.12299050918421339
1627,0.4259401925270956,0.4059265769511531,0.10630996915074052
1628,0.5471037589022274,0.614267372845564,0.05696736762815615
1629,0.3957087361501078,0.4044157212595909,0.07273623294631977
1630,0.4685407072334815,0.49480537993989016,0.09626250039421293
1631,0.4970752142089099,0.4579213516738577,0.09869381680858512
1632,0.3891752669051134,0.3864126745536599,0.09643740645002075
1633,0.3820094672194956,0.38558086158197025,0.08459137788538108
1634,0.38679423772931965,0.3956185308198703,0.11072359523841604
1635,0.4703335624967412,0.4546568349552387,0.1161089616601842
1636,0.3823744158325365,0.3606506756486335,0.04811598556005714
1637,0.382526148443569,0.31198717021850997,0.06945840904480519
1638,0.40450081438971264,0.41259587251943497,0.11399137489810734
1639,0.515127821884179,0.5067062190668908,0.07767482393086071
1640,0.43050477225706185,0.41188416019332474,0.07370023785055307
1641,0.3854030761276659,0.3857184387782887,0.10479622852559223
1642,0.3906038384290116,0.391120543225402,0.1249143658165333
1643,0.42973569056657135,0.44202317171524574,0.15060695146598274
1644,0.42930603936934386,0.41431420961812626,0.10103472044457945
1645,0.49117953105403955,0.6368632555804979,0.07428374915422123
1646,0.40190194888947073,0.40625222593483235,0.0807317931358424
1647,0.4768772512985634,0.48537369328766267,0.06503499070303538
1648,0.5208623611270781,0.49204587533623123,0.09268760165762664
1649,0.41487886215284187,0.41054607840393564,0.046821519891681165
1650,0.4102297354167369,0.41122180741915615,0.046118292777692325
1651,0.4181637726694193,0.42119195198045234,0.043336331453329116
1652,0.504984832961021,0.4903569405738607,0.08678685472011319
1653,0.42177113754024975,0.4011539634482101,0.06116792792607934
1654,0.48012062799339117,0.34847208409347885,0.0666120421903554
1655,0.43713558062437385,0.4481524110832944,0.07974705213990087
1656,0.5469822992226716,0.5440816015378073,0.08243989390342052
1657,0.47887424461981265,0.4511510540236513,0.04566715311954027
1658,0.41744173773924653,0.41823660838984233,0.046414053845473216
1659,0.41877398022344803,0.4204459329170248,0.07225989569841822
1660,0.4385840439749923,0.45961100507869457,0.13137217809199211
1661,0.4746744823855128,0.4432101708646059,0.05786845012984264
1662,0.36795372211391364,0.5397825009864916,0.09384865199721218
1663,0.3766757363683425,0.4141075407359829,0.052195076159641564
1664,0.4555261767242824,0.4775125182318335,0.08150906473340637
1665,0.5373872682377377,0.5106126433302896,0.06616483016253226
1666,0.41815929996304,0.4092392306378424,0.028885809989741797
1667,0.39710140075792855,0.39948298077344624,0.09833093824720845
1668,0.39806639918293174,0.40131430895522513,0.09430314518715316
1669,0.46710878701211134,0.47443461730215686,0.07354686011426291
1670,0.40210509265315453,0.39858495783739656,0.07568634859193105
1671,0.7166074550930183,0.5458636618978265,0.09135052130382984
1672,0.3992804112393914,0.4018144997723142,0.03978386565073885
1673,0.49718988841888023,0.4961830376268447,0.0834653015154417
1674,0.45989112153861045,0.4445874331677776,0.12073541473724612
1675,0.3834661647566875,0.38411498769369157,0.0882902721846042
1676,0.3840138748109939,0.38552143825276974,0.11249175822676101
1677,0.40129916637203644,0.4024586752573296,0.08499974656562687
1678,0.44729823597981644,0.4413183432288903,0.10672060323701113
1679,0.3402861019019495,0.33946667107162,0.09544328043309828
1680,0.35782174253734333,0.3597154363139019,0.12458338587047284
1681,0.43812476811657375,0.43487914999176314,0.07139805126845403
1682,0.5209742875639481,0.5112983021569675,0.13430628893115085
1683,0.407509223882048,0.40947482584041683,0.1263772506399553
1684,0.39345878650363675,0.396174477495323,0.0838450530907203
1685,0.40047532708170275,0.40249453820315373,0.06854238068106723
1686,0.47917529995224695,0.47220154285244254,0.09718963659466691
1687,0.41345673680220585,0.4139111014595209,0.08676444137541664
1688,0.6872138345740458,0.6569474750927001,0.05317675563777612
1689,0.4178037749893255,0.41976847222403557,0.0481447346572116
1690,0.5217863267865586,0.5141040715488064,0.06662214260604742
1691,0.4909254927197806,0.4795821315762976,0.07558027526074229
1692,0.4134329774549431,0.414733805457562,0.10226123528075015
1693,0.41586378312267114,0.4174960758358697,0.1403474532839013
1694,0.429291991813726,0.4327273565160171,0.06985425426248015
1695,0.49725377001270243,0.48029029930812395,0.1153713167879176
1696,0.3920975125951256,0.38059769194167825,0.11655559925524514
1697,0.34139767992667924,0.3783736930072388,0.0879008085793046
1698,0.4519387395564859,0.458745003000797,0.07709841626174203
1699,0.5563117616495437,0.5417853526000513,0.09664723594277252
1700,0.44972361939262373,0.43734228347439863,0.0758310534621752
1701,0.4123334222768479,0.4137653888291769,0.06562536855393747
1702,0.4137383445869214,0.4151971668175486,0.09287825879298889
1703,0.45484663274660175,0.46707904834407077,0.08081524576082096
1704,0.44001831448091266,0.4265628914487952,0.12218878846826313
1705,0.5041903908346015,0.6663148376665554,0.0987634789222272
1706,0.4049573974270002,0.40956355660119825,0.10537380127671271
1707,0.47398655714531157,0.4826198443177715,0.07661606402540526
1708,0.51196323860647,0.49014686586597567,0.08538843344957464
1709,0.3997925536625849,0.39813121397355233,0.07103056763119951
1710,0.3898475808393045,0.3925827141416708,0.05332409033648785
1711,0.3926042854160915,0.39622269142176836,0.09841594713951372
1712,0.4751299145408926,0.4697522593578841,0.11063675714561887
1713,0.38890140056619615,0.3870125429560586,0.11566274521644632
1714,0.4656670305766334,0.3760036941878244,0.05798484006364153
1715,0.3989676898364618,0.40558629054088924,0.08298139698546265
1716,0.5076762876604236,0.5041015425632782,0.06762035160508587
1717,0.43705952924537483,0.4278695792424998,0.10407928960879496
1718,0.3800766052758061,0.3842343173002425,0.022906660096430165
1719,0.3836548851126447,0.3878293811973721,0.06495094236336528
1720,0.41065747765262295,0.4184395230421232,0.09508366648479426
1721,0.43660741174820017,0.4263040426190654,0.07506779670713791
1722,0.3664812161660891,0.41935566723073525,0.07189869783903317
1723,0.3818143793500519,0.3932815352392539,0.07931759442300544
1724,0.45317814276630186,0.4576759835905476,0.09186922701944712
1725,0.5267068953001383,0.5054923721868393,0.0827869428486378
1726,0.41382512296760077,0.4086217176422132,0.11613630625461764
1727,0.4021731276971825,0.4035814043255931,0.04150911112642094
1728,0.40953221328522027,0.41102354131571206,0.12289777974324369
1729,0.4884418446942492,0.4886244780162802,0.03203757592620434
1730,0.42266999477358436,0.41596273475827195,0.1173112808095009
1731,0.7244869737094403,0.47014197532571544,0.06131609447761774
1732,0.4244310880563399,0.43188486369831325,0.049784948828162916
1733,0.5252678205160609,0.5315357121602354,0.12993532001405145
1734,0.49929991299959353,0.46810249608351207,0.07531160131300947
1735,0.41790277188827796,0.41750320394766816,0.05051551082763121
1736,0.4186860276097881,0.42031398196234837,0.06902485813652878
1737,0.4298315205900821,0.44336640059259913,0.12232698048718244
1738,0.49829088268637634,0.46438015502817387,0.1101623876095302
1739,0.3934990143815795,0.3961378849684566,0.040548512690468094
1740,0.3366431865855366,0.405849861512282,0.10362773883625469
1741,0.446245917593488,0.46670046183651726,0.0984785923689745
1742,0.5480736392102913,0.5283355612934538,0.057246703639418056
1743,0.43883212987045805,0.4224816900184416,0.0529288622188607
1744,0.4042792980957526,0.40724017458780415,0.06908381472515543
1745,0.4051637584515082,0.4085594638493425,0.12759036709168572
1746,0.45505649453286157,0.47524219419839553,0.058748307475560944
1747,0.4207056432336024,0.40891341246121715,0.07867672659690395
1748,0.6500823899951659,0.6570092377648772,0.08041050916954778
1749,0.4006648889327281,0.4083632878571346,0.05965120496520771
1750,0.48156564297833393,0.4975410424853809,0.042625761708258464
1751,0.48692624430543296,0.4585353279394867,0.1063496363743267
1752,0.3886280307247969,0.38977868220445977,0.07477003599019925
1753,0.3844673915065754,0.38911196391737013,0.07952032011000551
1754,0.3915305223523923,0.4020358048337609,0.06399301651779142
1755,0.4666029973299398,0.44744869971575885,0.04323561502911772
1756,0.3674714217616357,0.3473075796034143,0.049892106924658335
1757,0.3032435309235617,0.34392297295472185,0.04143131271796893
1758,0.4126315829160683,0.4256480468764269,0.09361867524009851
1759,0.5195784853497375,0.5074287022685844,0.0835429672576014
1760,0.41703280150450506,0.4051483286528269,0.02792702506293375
1761,0.38476153657880297,0.38858481853619775,0.07886794275520888
1762,0.3905772226487362,0.39399830128173907,0.09165900848317624
1763,0.4417132002757145,0.4584360239669619,0.080228566162346
1764,0.41975443213900954,0.40994499529293515,0.10979908434999455
1765,0.6079340321860819,0.7005347595561616,0.06702407037035159
1766,0.4021837772493907,0.407653451757486,0.049150679190146436
1767,0.48438978016562095,0.4967220998321846,0.09173297334680666
1768,0.5106005453710338,0.48029667948102917,0.05341488195171945
1769,0.4105071975217349,0.4078810876663864,0.053000462502422976
1770,0.4085621894675172,0.4104208831647317,0.0561127059124719
1771,0.4174891667255767,0.42275555884202376,0.05079329765307569
1772,0.5034862510313994,0.48520760321418144,0.04107163869857648
1773,0.41657944807986125,0.39227968454584994,0.08832439010581893
1774,0.41748843089219334,0.35069200407778334,0.10726655207985902
1775,0.43953251261127124,0.44977258420928945,0.031977993916591604
1776,0.5495494899857881,0.5432351869229856,0.0971699152783112
1777,0.46727490115181125,0.44663925633156165,0.09211239789797634
1778,0.41659013194028116,0.4170474018206751,0.0796044709267021
1779,0.41866387810628625,0.41945673082199575,0.02134196925648674
1780,0.4485529573305531,0.46221408499331884,0.07098569984481942
1781,0.457561286630508,0.43978810779183064,0.11331587257050951
1782,0.42785564118367936,0.5732292057199702,0.09910821999370814
1783,0.406602929745854,0.41565713919335134,0.05135800765135447
1784,0.47243295533204765,0.48015909461987005,0.13220969400866914
1785,0.5244985111471443,0.5063719678393357,0.07021976813994502
1786,0.4099846571871364,0.4079361871179502,0.045131082927007696
1787,0.3973988627694055,0.399943549943546,0.10762877973245782
1788,0.3993117720494317,0.40205854346029035,0.05794623636613312
1789,0.4800789240726133,0.4759653975856599,0.052056978472690515
1790,0.39510742093200035,0.3965440690213271,0.08883212557834637
1791,0.48521119815895786,0.43999314560355274,0.0935905812388168
1792,0.4018184304966155,0.4041396927349231,0.09197748145759017
1793,0.508706741516515,0.5009027209270981,0.06187254176195846
1794,0.4417861291321715,0.4353247152171458,0.053030881249193286
1795,0.37966181098365703,0.38266681502787514,0.04911761773713269
1796,0.3818386026723932,0.38504091935954066,0.03748533405347587
1797,0.4029011193286186,0.40671187424194066,0.06538061742050487
1798,0.4392402801281269,0.43198319595323253,0.051844720002078
1799,0.33356174638585834,0.4069028196807597,0.08907372333835596
1800,0.3621701760252344,0.27143265815578654,0.12446361774601343
1801,0.4397700329144262,0.3482760741375256,0.08383470701676346
1802,0.5274780364559761,0.42551447789191776,0.07657515564081747
1803,0.41287884954433196,0.33210344266670555,0.11009617371278438
1804,0.3946359365403802,0.3273227636145044,0.0893693051189539
1805,0.4012300667023917,0.34005818513742325,0.09968151456636191
1806,0.4679230051179776,0.4161735485982917,0.12614430719936895
1807,0.42281545363376505,0.36452337444907823,0.0742860198884584
1808,0.7180267443545948,0.6521938373420012,0.042515653206528406
1809,0.4185855298781186,0.37677561898331535,0.05617448033470248
1810,0.5060818007430411,0.47119194298423606,0.13719526204204255
1811,0.5183319317950194,0.45446739351895626,0.0925931509606141
1812,0.4205617139238943,0.3849179525152986,0.1351604772338423
1813,0.4188832705983133,0.38948869937583974,0.07659070852023683
1814,0.42686409373383216,0.4030128363125516,0.033099171578827746
1815,0.5110327108127716,0.46849503388559977,0.05419252035698231
1816,0.418945895827708,0.37544169250330783,0.09523686188191466
1817,0.4006965401642353,0.33231492563432385,0.09728316815810044
1818,0.4421094960864308,0.4303774041541232,0.08186394870332413
1819,0.55107361766692,0.5252921211060553,0.10343606401274454
1820,0.462025524501707,0.43003109785463556,0.07891817040543676
1821,0.41351061553122404,0.4003425261328879,0.06793448791806114
1822,0.41445116696703377,0.4028872920700102,0.07926312597328722
1823,0.44825137338789267,0.44646432928155555,0.09797005994449638
1824,0.44471833371363156,0.4219868485168692,0.11634202508835387
1825,0.47957679983689994,0.5821504722426187,0.06306500586244648
1826,0.40452562437806105,0.40033331431571706,0.03612989156100342
1827,0.47291916274824797,0.4697974494272741,0.09422659874708737
1828,0.5111149099561354,0.48460450533435384,0.07923083281750674
1829,0.39967506137204245,0.39217763522645877,0.10640501329073832
1830,0.3898892172253111,0.3870060604774844,0.11409114977447536
1831,0.3930954534912199,0.3918020215078172,0.08805691375153839
1832,0.4752846614326681,0.4631079103908483,0.10994274133541415
1833,0.3863280265050506,0.3783658380526038,0.054497877314045526
1834,0.3995437727242671,0.3269844664685857,0.1073997714605373
1835,0.40277982637199816,0.4050652803516891,0.06241870583699133
1836,0.5123956729911209,0.5024786100470684,0.03240363334914669
1837,0.4367656711083149,0.4155505336837899,0.07675921713751027
1838,0.3808600147656691,0.38118300481229095,0.056448542718762984
1839,0.3843826562709628,0.3857326674475988,0.05865850577988796
1840,0.41025797604271574,0.426600547124811,0.08094981592830232
1841,0.4407572288149335,0.41263550574603136,0.06240341810041398
1842,0.3515193712864787,0.5538313297931965,0.12431996982394695
1843,0.3673716919928962,0.3935891317380116,0.08102883656244787
1844,0.4441076318998891,0.46552629513112975,0.08197020695353564
1845,0.5284541505691094,0.49157186106598627,0.07553541956334762
1846,0.4147263995929833,0.40180142766974036,0.07210056130982952
1847,0.3998278528752548,0.40053300494766997,0.032665736314913256
1848,0.4070592982757436,0.4092222032479206,0.11368118658935204
1849,0.4799365257528345,0.4865384581570955,0.09667915134143165
1850,0.4244094236213032,0.40881930844256986,0.026514239917196012
1851,0.760457753929722,0.3864914922163054,0.10717354058836061
1852,0.4295171846222683,0.4329935753871762,0.12260981584643006
1853,0.5251173779961256,0.5338805717157913,0.08161544338046682
1854,0.5063120519570252,0.4586026652988743,0.07754993339551167
1855,0.42333816957514414,0.4157290614719731,0.06003661004963081
1856,0.4234669323768647,0.41902326325568773,0.04042560759147234
1857,0.43540621293715454,0.44748602738690557,0.13005385151057877
1858,0.4960048176165551,0.45652459621589503,0.06278570664991946
1859,0.3851207144343398,0.4274424893374924,0.07089671733554104
1860,0.3592576094583727,0.41289772999274243,0.04154799493747906
1861,0.45804433439556325,0.4723870805447734,0.03603123124787027
1862,0.5484059029751046,0.5230694248707132,0.036618166671274696
1863,0.4317144559018573,0.41966454489093163,0.11034980415446138
1864,0.4080099583512744,0.40741996593555596,0.09942717664164348
1865,0.4088917998541163,0.40904584794218357,0.0803381562711677
1866,0.4789214510762153,0.47967597500144554,0.04577483497401712
1867,0.4104188885848522,0.4067990932524449,0.03865222821596692
1868,0.6713061479938413,0.5699889967031017,0.06866150434118888
1869,0.4030921087719359,0.4074125040891149,0.06202736631363548
1870,0.5032274039856633,0.5003626729047762,0.052886476396335584
1871,0.4582033108133795,0.4488315227764035,0.05198697584560611
1872,0.38323364272521987,0.38732147053247556,0.05349301864543064
1873,0.38304189172309944,0.3876211684342308,0.08908244159882976
1874,0.39868034306127875,0.4031487781911923,0.05327278777779969
1875,0.44507548315606027,0.43986022504176603,0.07820181021347744
1876,0.3272256085420283,0.3440162205556393,0.13447205405355372
1877,0.3449832788189854,0.3555237456718826,0.0780865331762746
1878,0.4289793885553733,0.4274288187120481,0.08129799152191375
1879,0.5209163540645426,0.5051098296116088,0.047486015484318786
1880,0.4066788285098015,0.40205228694308015,0.041911800219128596
1881,0.3850929582321557,0.3865424073225602,0.10221272776255248
1882,0.3910323503108687,0.39217951332810186,0.11858274791496608
1883,0.4539245792423473,0.45688450339937403,0.11286432137753061
1884,0.4143570552034701,0.4074634771859368,0.04634478878435622
1885,0.6828484907608886,0.7057386416457122,0.04540483746586147
1886,0.41071352978111664,0.40703036631871736,0.041285545778803216
1887,0.49507779094581583,0.4935806575119962,0.11514542629268186
1888,0.5128133699265021,0.4867807498062531,0.11940460565378383
1889,0.41514887513868703,0.4086861818907904,0.0944609077440561
1890,0.4134232296566912,0.410043866899479,0.08944421237532765
1891,0.4217988711041777,0.4201616058926263,0.10689875727674558
1892,0.5084617714074786,0.4921015869899027,0.08053650158533594
1893,0.42140435538764875,0.4040829223212389,0.10175035226739053
1894,0.4372231806274278,0.35469507861606486,0.0920199437689485
1895,0.43944997568311617,0.4408157220290194,0.06812393218472168
1896,0.5498866434245089,0.5397384951767382,0.04186338211225738
1897,0.46886692614078873,0.4551848374089257,0.14185401614958504
1898,0.41734272584807297,0.4156019510198984,0.03392299153643309
1899,0.4193420795760473,0.41783254793851077,0.02778461557229242
1900,0.44990764100241776,0.4488287531718339,0.08447241328815375
1901,0.4565951272808989,0.4497663426919528,0.07272076378833087
1902,0.4432757552281039,0.4401062423491402,0.09779101731721768
1903,0.4089113434318957,0.4101202198440652,0.05274718368637714
