,ecg,emg
0,1.0949894312739323,0.11435257200514465
1,1.0419875931662608,0.12679220452040446
2,0.9044144719926558,0.11719994151392442
3,0.7080851564508491,0.10972712802986574
4,0.4806061478321233,0.054823978812810856
5,0.24981622489768057,0.010121325335732985
6,0.04260407705770551,0.09648663852011342
7,-0.12611017751689962,0.1365586169366473
8,-0.2507635565987317,0.11547798997702942
9,-0.3297607639790917,0.12961780668045297
10,-0.3654279140472799,0.11602738237882398
11,-0.36401253179059717,0.0911469189745626
12,-0.3356835527943438,0.09447699991773102
13,-0.292647865042159,0.07726931155144422
14,-0.24411175299689644,0.10305687842166433
15,-0.19720565981371513,0.07107954464526271
16,-0.1568618241564731,0.08678146469996753
17,-0.12581317201438666,0.053257713595833936
18,-0.10459331670203066,0.08457446403237559
19,-0.09153655885933784,0.1302988666033883
20,-0.0829292866707037,0.09176559518970052
21,-0.07664453357115485,0.11353055815248188
22,-0.07200849548586286,0.046879585180319525
23,-0.0682389744913883,0.06331130234966673
24,-0.0647155930307727,0.07070876451064347
25,-0.060979793913538964,0.05549490689473209
26,-0.05673468303063292,0.04124117153639965
27,-0.05184438548655132,0.07064923554901548
28,-0.04633459231324448,0.045011642069375406
29,-0.04031567502317498,0.14248436192492106
30,-0.03365456251937014,0.05337547766079468
31,-0.026269524797079877,0.08566123914899525
32,-0.018101910092206026,0.024676595232411908
33,-0.009103830588083364,0.010319603169911864
34,0.0007618375845196137,0.10583350588284166
35,0.0115214543474017,0.12315080974863944
36,0.02319061567492804,0.06804491567969012
37,0.03577415359403077,0.07116596805150047
38,0.04926613618420879,0.0597422823324387
39,0.06364986757752764,0.1434894588488307
40,0.07889788795861974,0.05524159810989763
41,0.09497197356468426,0.10344699217381399
42,0.1118781932597823,0.1179330175660394
43,0.12970149766613212,0.045219222135977254
44,0.1482430192455208,0.04251225241713183
45,0.16728484503442312,0.06454481890148749
46,0.18661631404211498,0.1028951595715484
47,0.2060340172506746,0.07004496567851094
48,0.22534179761498146,0.1189311041408642
49,0.24435075006271703,0.06675180969561102
50,0.2628792214943643,0.045690070672508236
51,0.2807526429535653,0.07975285618213261
52,0.29780259050219077,0.06432985225678002
53,0.3138674415400873,0.05144232357906984
54,0.32879282398491844,0.07910756809540528
55,0.3424316177271489,0.11117701988786147
56,0.35464395463004583,0.04754476912370368
57,0.3652972185296775,0.08114486773782648
58,0.37426604523491447,0.07688394079044455
59,0.3814323225274286,0.0814756488310157
60,0.3866851901616935,0.049314722526521824
61,0.3899210398649851,0.10320203382849577
62,0.3910435153373802,0.06131868202857385
63,0.389963512251758,0.12310666225562263
64,0.386553301104861,0.04396542862029737
65,0.3805645524003355,0.12591608372459898
66,0.3722017326601541,0.11647548940173104
67,0.36172977764143693,0.07255777897619618
68,0.3494026287236813,0.12295914836322305
69,0.33546323290876073,0.045148339273228796
70,0.32014354282092655,0.021034688370360963
71,0.3036645167068062,0.11639770076444529
72,0.2862361184354049,0.08449328032355923
73,0.2680573174981045,0.10564584057568165
74,0.24931608900866326,0.0645205774925848
75,0.23018941370321724,0.0657022496768869
76,0.2108434785842974,0.020399372484706833
77,0.19143517005305113,0.05693406985905854
78,0.17211123045516866,0.08209382247510524
79,0.15300741416116775,0.05701635829996811
80,0.13424848116394156,0.0383315968330261
81,0.11594819707876093,0.11925984085047409
82,0.09820933314327382,0.12570780521639907
83,0.08112366621750462,0.041693288240374445
84,0.06477197878385502,0.09419100119502992
85,0.04922405894710392,0.09192043869694451
86,0.03453870043440659,0.13213173987247456
87,0.020763702595295724,0.12639942277785376
88,0.007935870401680806,0.13016461870949586
89,-0.003918985552152026,0.0824021302529455
90,-0.01478604904953891,0.05401707718569958
91,-0.024661498251440105,0.11866563672210569
92,-0.0335517923199804,0.11325532630169519
93,-0.0414669278058513,0.03182115061209462
94,-0.04846288439817295,0.11804921762859531
95,-0.05460698350378022,0.1116221032428295
96,-0.05996369267648267,0.05594226140983928
97,-0.06459462561706432,0.1045278432716646
98,-0.06855854217328378,0.11665610229203921
99,-0.07191134833987421,0.12520650854603402
100,-0.07470609625854321,0.10687605706055092
101,-0.07699314538107888,0.08761365833128743
102,-0.07882181264571458,0.10858720723011232
103,-0.08023971285863174,0.06992293508801116
104,-0.08129162692670164,0.03946113593662838
105,-0.08201948190377012,0.04682584671438609
106,-0.08246235099065789,0.043639891200831886
107,-0.0826564535351599,0.08016756852001991
108,-0.08263515503204577,0.04535925167289923
109,-0.08242896712305949,0.05141743885578354
110,-0.08206554759691989,0.045200161252208375
111,-0.08156970038932007,0.06486265898695084
112,-0.08096337558292782,0.06744216817539876
113,-0.08026566940738535,0.0646893231132736
114,-0.07949282423930965,0.0403810124248904
115,-0.07865822860229184,0.10395202741359476
116,-0.07777241716689802,0.09789709973264223
117,-0.07684307075066853,0.12781703864672855
118,-0.07586505657469543,0.06717298284988678
119,-0.07481490329683693,0.07770401423875645
120,-0.07371178449102692,0.038953464382950435
121,-0.07257633954630827,0.09357208975864051
122,-0.07142692184392936,0.11483133577347661
123,-0.07027959875734362,0.12549960856510997
124,-0.0691481516522096,0.11150845857597483
125,-0.06804407588639115,0.11218338329698484
126,-0.06697648274403885,0.09717439720338063
127,-0.06595072234220811,0.044826485277998394
128,-0.06496871920571191,0.04338540492989433
129,-0.0640300823052929,0.12115403298018362
130,-0.0631321346038989,0.0676029225572945
131,-0.06226991305668272,0.050345702479055184
132,-0.06143616861100266,0.039678387728860766
133,-0.06062136620642199,0.06706445121845686
134,-0.05981368477470937,0.07459895503993272
135,-0.05899901723983841,0.05828502088238363
136,-0.05816097051798813,0.04388012742601867
137,-0.05728086551754275,0.03339162696081691
138,-0.056337737139091515,0.09335241559905245
139,-0.05530833427542899,0.09223050056572366
140,-0.054167119811554934,0.10676445502169107
141,-0.052886270624674186,0.10664163222696617
142,-0.05143567758419704,0.056045652118955964
143,-0.049782945551738705,0.02709830545510213
144,-0.04789339338111991,0.039895374038052815
145,-0.045730053918366216,0.05443716548665249
146,-0.043253674001708486,0.07846202596258937
147,-0.04047971548649056,0.10682852250741373
148,-0.03742660821552541,0.10526078300058352
149,-0.03381459813451843,0.08270883592353107
150,-0.029383556992356296,0.03550361679443206
151,-0.023914253515768875,0.06671587212015564
152,-0.017230284342462474,0.0635865511500052
153,-0.009197943460945757,0.07876396530789848
154,0.000275608647654345,0.12039230653496992
155,0.01124241106447729,0.062394138562930815
156,0.023713702432928956,0.12970599844568595
157,0.03765992095868151,0.04050198458163898
158,0.053010704409673565,0.126059860052569
159,0.06965489011610985,0.06581448413795642
160,0.08744051497046168,0.08160294075934908
161,0.1061748154274666,0.11231303137283706
162,0.12562422750412863,0.14609009486200272
163,0.1455143867797177,0.09934504727348711
164,0.1655459085612765,0.11337939147092055
165,0.18535381197845793,0.08156384429514711
166,0.20425527564168802,0.0830602238054806
167,0.22160790953806428,0.038620205398037254
168,0.23686326664611973,0.08933984008749506
169,0.24956684293582146,0.11526645647825842
170,0.2593580773685711,0.11095791306324576
171,0.2659703518972057,0.07272482340751853
172,0.2692309914659962,0.09053558213262915
173,0.26906126401064867,0.1365516561873643
174,0.2654763804583035,0.048334958429276174
175,0.25858549472753606,0.029077646638756994
176,0.2485917941569867,0.047739285379212
177,0.23579212769710398,0.10621782943363729
178,0.22048361197383,0.062370581789005966
179,0.20322594105434363,0.07308120510899707
180,0.18464212914979075,0.09948331808434788
181,0.1652949156462196,0.12991286283726983
182,0.14568676510458112,0.11886072515067649
183,0.12625986726072871,0.04990458408400742
184,0.10739613702541854,0.08111628299231065
185,0.08941721448430907,0.09939441135193915
186,0.07258446489796137,0.03924291692241591
187,0.05709897870183911,0.09833518290608755
188,0.0431015715063085,0.07473349150509964
189,0.030672784096638317,0.09551410579334371
190,0.01983288243299966,0.08091714942072271
191,0.010512499378097428,0.09992428002176489
192,0.002610026744898772,0.09378135942500106
193,-0.004039924429744459,0.04672786292284151
194,-0.009771591582435285,0.10292554624783909
195,-0.015088749416510044,0.09515532244232205
196,-0.02066470990203787,0.07194904471728543
197,-0.02734232227582146,0.08716922484281019
198,-0.03613397304139644,0.08804208512503882
199,-0.048221585969031575,0.08609328463908808
200,-0.06495662209572883,0.07719126395646204
201,-0.08785465649552433,0.11398332805511505
202,-0.1168397683092369,0.07520383212048824
203,-0.14739255435610304,0.09887240725679375
204,-0.17371090313056914,0.1093437421042973
205,-0.18929506627849135,0.06726070758352143
206,-0.18694765779384337,0.100878517479666
207,-0.15877365401871724,0.060008153342102195
208,-0.09629925040238331,0.04602859914956083
209,0.00596182749361251,0.0987320046181083
210,0.15025809829019424,0.08833049071885671
211,0.3325965070077234,0.09839186580654052
212,0.5413838592418543,0.0815699770135079
213,0.757426821163532,0.0906660839570179
214,0.9539319195189934,0.04126577031684786
215,1.0963445472891453,0.046291040123203696
216,1.152861322178423,0.029371478790104082
217,1.1218973841075748,0.04746415666448206
218,1.0121780590506242,0.04137913943456427
219,0.8382713384319066,0.1121664081780929
220,0.6205878791260726,0.13005426581136
221,0.3853810034580844,0.08383773012823843
222,0.16474669920321802,0.1022921259860232
223,-0.015871134847297533,0.10900158480516829
224,-0.15315832617628225,0.0946123649895638
225,-0.2454494445646095,0.13386223224943722
226,-0.2942691992125534,0.04580894462783062
227,-0.3043333528975016,0.07899475091666786
228,-0.2835473808628298,0.06538216739436231
229,-0.24300917038495415,0.03468957813309258
230,-0.19516463166581255,0.08582936858881828
231,-0.1474645436772331,0.03103491312167303
232,-0.10482064682538243,0.13006560943196674
233,-0.0703160834477783,0.09304138392332444
234,-0.04519981062256361,0.1071338154945829
235,-0.028886600168505926,0.06744232090142098
236,-0.018957038644998307,0.09846971120022943
237,-0.011900092253960135,0.09130863824097935
238,-0.006674805440926293,0.03010592881041073
239,-0.0025411656488740436,0.027327315191392202
240,0.00115545157328174,0.14005487552998197
241,0.004913672663611336,0.036771260415611746
242,0.00907612604716915,0.09963706888370506
243,0.0138294421359948,0.10212971602295685
244,0.019204253329112204,0.06237135197964474
245,0.025109834292084392,0.11874757493513988
246,0.031639407750365035,0.04356099277239836
247,0.03888219658111304,0.11137836028551687
248,0.046896894243211217,0.024346967417323923
249,0.05573298095545692,0.057962619010175936
250,0.06543072369656248,0.06750811355752705
251,0.07602117053087414,0.13727404362263385
252,0.08752491326265631,0.07888568571165201
253,0.0999506318025801,0.07582954399337678
254,0.11329755685542017,0.08896450663335546
255,0.12755571745041822,0.058673114239317994
256,0.14270592937673093,0.04272191302661848
257,0.1587652144545723,0.0672393679287167
258,0.1758459883178612,0.08976847062019574
259,0.19378868496845825,0.09243151951693114
260,0.21240533953165314,0.03290752797603415
261,0.23151134646009108,0.12542156907751018
262,0.2509254595337731,0.1145896804319536
263,0.2704697918600553,0.12617273856361746
264,0.28996981587365006,0.033400446797711106
265,0.30925436333662437,0.13161468642550916
266,0.32815562533840137,0.07131913158903674
267,0.34650915229575946,0.11134662611661636
268,0.36415385395283284,0.07257616110990422
269,0.38093199938111066,0.10420754656302883
270,0.3966892169794383,0.11743611493883736
271,0.4112744944740161,0.129799262404308
272,0.42454017891840046,0.06031109915141454
273,0.4363419766935028,0.11603653115237084
274,0.44653895350759043,0.09273288030796677
275,0.454993534396286,0.04248254406662253
276,0.46157150484825954,0.0827433452918822
277,0.4661429834379855,0.12014369423101152
278,0.4685842010456902,0.09218807606121626
279,0.46877523096803103,0.03756526056612921
280,0.4665466202169086,0.06424311199031794
281,0.461851936387146,0.07581073564949135
282,0.4548942594561098,0.09401149983232077
283,0.4458772747758989,0.07090292963896318
284,0.4349999076608384,0.08895326786985996
285,0.42245632338747857,0.04349679973484148
286,0.4084359271945957,0.10433091750231535
287,0.3931233642831919,0.10322263509518967
288,0.3766985198164946,0.08050371765080662
289,0.3593365189199582,0.1107888402897466
290,0.3412077266812599,0.0627767931616964
291,0.32247774815030533,0.06854417993079567
292,0.30330742833922475,0.08321133619335101
293,0.2838528522223744,0.13371157698145877
294,0.2642653447363361,0.08410801453116354
295,0.2446914707799177,0.09311312647180975
296,0.22527303521415204,0.06656484769692697
297,0.20614708286229821,0.0571460016745968
298,0.1874458985098408,0.1140851451800204
299,0.16929700690449004,0.053267927258241816
300,0.1518231727561824,0.0693599906491447
301,0.13514240071218275,0.11152813547606787
302,0.11936737823545165,0.07092206735711096
303,0.10460400405412655,0.03229088783521274
304,0.09095276788727401,0.10533102820981796
305,0.07845565567064178,0.11322252872248416
306,0.06705777777054418,0.08187711819519276
307,0.05670334405915429,0.10080584708306892
308,0.04733751901633653,0.04554556646829003
309,0.03890642172964667,0.10292325498050935
310,0.03135712589433201,0.10325415510592799
311,0.02463765981333154,0.04059964954549004
312,0.018697006397275232,0.0678559867727371
313,0.013485103164485045,0.10843413513068682
314,0.008952842240974174,0.03885071586505107
315,0.005052070360447092,0.052154688479071676
316,0.0017355888643000648,0.11069165349620232
317,-0.0010428462983793126,0.10184693059140193
318,-0.0033285245708122102,0.09676431305571
319,-0.005165780788527795,0.08425639204936174
320,-0.006597995179364288,0.0562279674239878
321,-0.007667593363468287,0.08887144073888065
322,-0.008416046353294664,0.08908511047463087
323,-0.008883870553607454,0.06656936472379202
324,-0.00911062776147846,0.031614543290614285
325,-0.00913492516628848,0.0791789917511561
326,-0.008994415349726812,0.13415953067200737
327,-0.008725594501237893,0.04219399815471372
328,-0.00836308447964755,0.08188047559325395
329,-0.007938526625314545,0.10860979773702342
330,-0.00745258255617496,0.032688803820250446
331,-0.006907754792021168,0.06110992463432049
332,-0.006312391674872216,0.04311791545578462
333,-0.005674236782560539,0.072907281184985
334,-0.005000428928731562,0.058816915313492334
335,-0.004297502162844591,0.03825466029078321
336,-0.0035713857701719295,0.02924044698086914
337,-0.0028274042717989826,0.0514768466082092
338,-0.0020702774246250336,0.09866040139163171
339,-0.0013041202213623104,0.0978489682871894
340,-0.0005324428905363618,0.1385707758348146
341,0.00024184910351376758,0.05287621931771724
342,0.001016455060635761,0.10652886465519586
343,0.0017896790448640363,0.07715621623278648
344,0.0025604298844195644,0.04038990173299858
345,0.003328221171710221,0.08262088091367205
346,0.004093171263330276,0.08321471377060422
347,0.0048560032800608315,0.14459425596022515
348,0.005618045106869622,0.133895770237174
349,0.006381229392911153,0.11730534782895613
350,0.007148093551526499,0.09706137211673266
351,0.007921779760243297,0.05540369427191955
352,0.008716834095528278,0.05876327364974192
353,0.009558228682162922,0.08640754701152668
354,0.010429981586130982,0.06810867257524254
355,0.0113232277858112,0.039262739203987866
356,0.012239470153235529,0.07085913685462684
357,0.013190580105366731,0.12761737433867615
358,0.014198797604098654,0.08278757640260152
359,0.015296731156255995,0.07443734441109671
360,0.016527357813594438,0.05247499249154271
361,0.01794402317280052,0.04399790258970309
362,0.0196104413754918,0.053586476149592124
363,0.021600695108216713,0.08004674500500077
364,0.02399923560245471,0.07277335041138162
365,0.026900882634616215,0.05937884759933587
366,0.030410824526042404,0.051873771461100816
367,0.03464461814300554,0.06890230099587197
368,0.039728188896708636,0.12895958431859494
369,0.045797612147936845,0.05298509214873798
370,0.05291893229082079,0.050483181645686
371,0.06122564578974172,0.08783183394059313
372,0.07089151858892351,0.11239411232492756
373,0.08202901353751839,0.03885099381122002
374,0.0946892903896071,0.06614001657364792
375,0.10886220580419899,0.11466370884948829
376,0.12447631334523211,0.10878977487262884
377,0.14139886651626082,0.1147502723102781
378,0.1594358384453065,0.06997249507142052
379,0.17833190946339383,0.03348888609612067
380,0.19777045685757094,0.08494975284400537
381,0.21737355481981405,0.04758394203446233
382,0.23670197444702784,0.08852573677991024
383,0.2552551837410461,0.06012455758682695
384,0.2724713476086305,0.12870387333936648
385,0.2878153765474402,0.04604575514723145
386,0.3008781207974707,0.10223181116161445
387,0.3112561017443128,0.1018165517385088
388,0.3186374375027529,0.1054757406399297
389,0.32280305869694,0.05538823276349508
390,0.3236267084603843,0.07308348198281081
391,0.32107494243595797,0.05639814562036019
392,0.3152071287758954,0.0551477431708242
393,0.3061754481417923,0.11295713424523075
394,0.29422489370460664,0.08772780314645871
395,0.27969327114465803,0.13047514951439934
396,0.26301119865162803,0.07784955979892831
397,0.24470210692455985,0.05309865181605976
398,0.22538223917185904,0.12739184596286554
399,0.20574149639955425,0.05456115547490872
400,0.18615333319802804,0.03645524671606491
401,0.16697158260906225,0.09026950594870022
402,0.14856924931940027,0.07587969483583452
403,0.1312488890639722,0.04497995717426145
404,0.1152433416275841,0.09172605998633077
405,0.10071649299456495,0.06545046571710306
406,0.08776300604703113,0.07889496036351687
407,0.07640829799637004,0.09921161029831994
408,0.0666085403832395,0.1271180677558218
409,0.05825065907756857,0.03639838583523479
410,0.051152334278556616,0.11373237271698729
411,0.045062000514673906,0.05173228982517069
412,0.0396588466436615,0.027837441648427563
413,0.03463586774663943,0.02729486743108772
414,0.02919274665872637,0.11667361915298666
415,0.02156354885485396,0.10671864677934292
416,0.010330362445162835,0.08647668542838836
417,-0.005490230594685976,0.07656348892014748
418,-0.026447154423514967,0.051424972942480586
419,-0.05265483933462464,0.10266727010750491
420,-0.08348391132000871,0.032147620316715565
421,-0.1140045130895767,0.11398521385134565
422,-0.13699382575890143,0.09092719979873078
423,-0.14517675374292469,0.0778050957307568
424,-0.13123783097341102,0.09948497081067642
425,-0.08782122089894716,0.1094855700567127
426,-0.007544199668015074,0.06825856120668519
427,0.11468495388933585,0.09048017591141529
428,0.27738444165194787,0.06695748210189359
429,0.4724556613016463,0.07147204239456717
430,0.6850268434022841,0.0919522755525439
431,0.8934530089933393,0.07054380639976723
432,1.0693159695899137,0.07216817308499383
433,1.1773539730121048,0.04929644224184419
434,1.1927740170531558,0.09025165489050273
435,1.122054797301188,0.08035650022106305
436,0.9789454869623446,0.07738802516688995
437,0.7816954023246897,0.10796044822859617
438,0.5530540027582098,0.07030397535264597
439,0.3202708907148133,0.043612271797101136
440,0.11445628447597325,0.05904375714779877
441,-0.04852363547235127,0.13394068089949504
442,-0.1666873818616898,0.09305336699397505
443,-0.23992301542010716,0.10301606148141716
444,-0.2713123109673379,0.12854495432542007
445,-0.267130757414787,0.08549800496508864
446,-0.2368475577655285,0.11388538055425453
447,-0.19280358027611277,0.12310426265845593
448,-0.14502218241180972,0.04983884223673331
449,-0.09975196237773594,0.06388555850242794
450,-0.06128212508602566,0.06558541347158531
451,-0.031906283496210365,0.06569589384181854
452,-0.01192263415590377,0.08099994499779069
453,0.00036306205027473656,0.10413575272824936
454,0.008419839630224552,0.03917175160699392
455,0.014137732752134861,0.10798644203622709
456,0.018329443337602915,0.05203713336940204
457,0.0217976895499815,0.09035934622043694
458,0.02515903365279445,0.11487770672574654
459,0.0288438820097362,0.04717040441437241
460,0.03309648508467256,0.02948510402429083
461,0.03797493744163967,0.04294569905844867
462,0.04337825077276648,0.0795110170359258
463,0.04938490936890196,0.07160506654350428
464,0.05608691704920445,0.054803768478530725
465,0.06353737043550521,0.059488246206360146
466,0.07178163767151681,0.08981357156849537
467,0.08085735842283369,0.07580706668761379
468,0.09079444387693174,0.03306899903250521
469,0.10161507674316828,0.11137176485747162
470,0.11333371125278274,0.04054077072889992
471,0.1259570731588958,0.04042831711175108
472,0.13948415973650952,0.066827851037625
473,0.15391716040185305,0.11792298577518892
474,0.16926765990108225,0.056568231177519586
475,0.1854546155909314,0.11112866400785626
476,0.2023789110152825,0.08604873024063463
477,0.21993313775981993,0.06330789561746736
478,0.23800345917194765,0.031994424357416375
479,0.2564697414680066,0.09331900334802122
480,0.2752035851627969,0.05251886048604475
481,0.29406822412585926,0.13149180343785427
482,0.31291852558147065,0.07037920010428017
483,0.33160099010864696,0.07655479324211552
484,0.3499537516411429,0.0639450715685656
485,0.3678065774674516,0.13589429823866528
486,0.3849808682308047,0.06663774473644742
487,0.4012896579291725,0.10988711435965894
488,0.41653761391526345,0.0698202078338886
489,0.43052103689652477,0.09222374408508377
490,0.4430278609351424,0.05201263737853993
491,0.4538376712380535,0.10713676237587444
492,0.46279169306270546,0.11852429901485673
493,0.46981368538587875,0.05004801766101847
494,0.47482294417871496,0.07676689685094176
495,0.47776117723067346,0.11002341425267192
496,0.4785925041495327,0.06238741986439335
497,0.47730345636138966,0.10190678532339366
498,0.47390297711066043,0.12522278247623347
499,0.46842242146007845,0.0894079749068468
500,0.4609155562906975,0.11191691812454704
501,0.45145856030188825,0.017690127528262503
502,0.4401500016078238,0.029201723739302993
503,0.4271099610236053,0.02821083066062051
504,0.41247975499537254,0.07355778182952705
505,0.39642311395645957,0.0440629513001351
506,0.37912622765059,0.09982170132799707
507,0.3607976981983898,0.07175107842126122
508,0.3416685395388039,0.01998256670358349
509,0.32199217742909575,0.10757163926570827
510,0.3020207589543445,0.06888635487617156
511,0.28186482179967837,0.11571601071165424
512,0.26169467891143133,0.10506122304238986
513,0.2416858730107284,0.058933724278995965
514,0.22199774304299455,0.04181754619455405
515,0.20277342417795463,0.08370301909925955
516,0.1841398478096338,0.05603937595994224
517,0.16620774155635712,0.06695567546338259
518,0.14907162926074938,0.09188751000160936
519,0.1328098309897358,0.08873392577736354
520,0.11748446303454109,0.09167245083644308
521,0.10314143791069044,0.07567903091240227
522,0.08981046435800866,0.06219909762542838
523,0.07750504734062076,0.03582537435981467
524,0.06622248804695148,0.0561623388268375
525,0.05594388388972613,0.1101190429528335
526,0.04663412850596907,0.1452485303232822
527,0.038241916419111996,0.12889646415574768
528,0.03070006043169373,0.11483049976372481
529,0.023932014464247288,0.123965099145426
530,0.017930744220447464,0.07797737801869753
531,0.012651360401580186,0.13083876632754177
532,0.008030105025707779,0.0890459160629278
533,0.004006297661552822,0.04044252072556489
534,0.0005223354284978792,0.06161593643438693
535,-0.0024763070034146267,0.05214767160203353
536,-0.0050410774134821675,0.059772726923018125
537,-0.007220346030341969,0.07151878143116606
538,-0.009059405531971657,0.07337350942582153
539,-0.010600471045688495,0.09358418048496217
540,-0.011882680148149872,0.06377113844501699
541,-0.012942092865353258,0.1291388605536481
542,-0.01381169167263575,0.051124349253758083
543,-0.014521381494674806,0.12704567725752752
544,-0.015097989705487667,0.08462700084366584
545,-0.01556526612843162,0.09382077805379768
546,-0.01594388303620387,0.10121396042376843
547,-0.016251435150841695,0.1217376715635102
548,-0.016502439643722243,0.09455278734716585
549,-0.016708336135562767,0.0970327839813602
550,-0.01687748669642034,0.093093535439979
551,-0.017013406598974955,0.04542918062703843
552,-0.017114211950109037,0.14549811822247602
553,-0.017190412652082935,0.06938517350237672
554,-0.017252460732408537,0.06459261943125541
555,-0.017309282835790696,0.038990035824486735
556,-0.01736825817537732,0.07359842098795977
557,-0.017435480452313076,0.06039150055531755
558,-0.01751577804100979,0.04626991052592101
559,-0.017612713989146694,0.10125339200702332
560,-0.01772858601767083,0.12356269518685221
561,-0.01786442652079622,0.07677856074609059
562,-0.01802000256600462,0.06125405626270256
563,-0.018193815894044996,0.08075340149533572
564,-0.018383102918934052,0.06430297792842811
565,-0.01858383472795553,0.1219260354195585
566,-0.018790717081660954,0.06934375620379013
567,-0.018997190413869068,0.07178456413378329
568,-0.019195429831666166,0.08923453067325442
569,-0.01937634511540586,0.059716696628973255
570,-0.01952958071870938,0.06344363380733029
571,-0.019643515768465118,0.08790878167364839
572,-0.019705264064829205,0.10092577815235955
573,-0.01970067408122495,0.10657186584424133
574,-0.019614328964343335,0.09009599464430057
575,-0.019429546534142396,0.0713727402390603
576,-0.019128379283848036,0.07667722667011928
577,-0.018691615245360765,0.0763655820809651
578,-0.018108351888941922,0.06148892706393794
579,-0.017413506346084205,0.08683690910053246
580,-0.016479633510097312,0.06988662819925355
581,-0.015151250328663601,0.09554796325380055
582,-0.013283468727860766,0.12544798315143327
583,-0.010741995612161758,0.08107716465946596
584,-0.007403132864434673,0.07695042747346227
585,-0.003153777345942854,0.05462643159381542
586,0.0021085791036551844,0.059493618196483695
587,0.008475849666305647,0.054546051744432666
588,0.016029352545559573,0.12019931514328587
589,0.024839810966572774,0.06283176505542382
590,0.03496735317610584,0.10921827124700241
591,0.04646151244252422,0.08543961066716023
592,0.05936122705579805,0.07699127841491163
593,0.07369484032750226,0.08392974963657213
594,0.08948067382523854,0.08155382070939649
595,0.10690453241290913,0.13495127403760546
596,0.12564516364284986,0.04357338573961195
597,0.14506074342920436,0.09812466623932832
598,0.1645573884923679,0.0765312918884129
599,0.1835891563589877,0.07224917253395827
600,0.20165804536196338,0.11319319838835944
601,0.21831399464044624,0.10743224204255317
602,0.2331548841644969,0.05270131102094688
603,0.24582661120624424,0.09006459453793457
604,0.25602325949323823,0.10544408623650689
605,0.2634867743853631,0.07367199892787296
606,0.2680066046726166,0.018643257906142026
607,0.26942004689939725,0.10808147327137324
608,0.267612338416356,0.050395592658707945
609,0.26251665738039526,0.12038038142110086
610,0.2541141227546703,0.04522050362222437
611,0.24247831045336202,0.07804042631285597
612,0.22808074309453835,0.06204665547147901
613,0.21154410515897748,0.10734176953176015
614,0.19344583788788364,0.05968241048272051
615,0.17431692009700878,0.03064885039851009
616,0.15464186817665332,0.09902170914734684
617,0.13485873609166515,0.108682575920756
618,0.11535911538144047,0.1217213516510041
619,0.09648813515992341,0.05018915100477517
620,0.07854446211560571,0.09177715188325472
621,0.06178030051152746,0.08114512543743828
622,0.046401392185276606,0.07797180956315644
623,0.032567016548989004,0.08269365928032683
624,0.020290032934367062,0.07226851305591198
625,0.009374272618799081,0.07358112964412589
626,-2.205216806899519e-05,0.07890639955691485
627,-0.00789210801717017,0.07996430266198143
628,-0.0144254399798544,0.07472608909869011
629,-0.020007766378020764,0.13114992112814164
630,-0.02522118126688733,0.09788064659343738
631,-0.030844223758793986,0.11414057679835653
632,-0.037851878023222194,0.12113476381074804
633,-0.047415573286795284,0.06416728783823959
634,-0.06090318383327846,0.06700923813951457
635,-0.07987903260647493,0.13981889469488265
636,-0.10544567545442537,0.09034743444459739
637,-0.13539304373085342,0.07883983186965036
638,-0.1655893414050075,0.047843532267987786
639,-0.19073180333405165,0.07152559616729821
640,-0.20434669526306598,0.08642567711719652
641,-0.1987893138250463,0.08327012595016772
642,-0.16524425723873848,0.05626623085653695
643,-0.09700471878070112,0.054705903474698274
644,0.011722908355930274,0.12847366600263105
645,0.16319783910626243,0.11963476059875174
646,0.35183473035390544,0.07591528357467363
647,0.5642036809309734,0.11972750050815542
648,0.7790302316180842,0.0975250673934061
649,0.9671946148176233,0.03154719343487623
650,1.091805191263473,0.07404860991545212
651,1.1344789477541595,0.07386063750310806
652,1.0934227675184403,0.11503157046259647
653,0.9745951167754443,0.03990346806182403
654,0.7917056795480925,0.10306902992797354
655,0.5662156770784332,0.057985090588021676
656,0.3273381303621961,0.15668136736805868
657,0.11154411786646697,0.07556046950238875
658,-0.06183220412623033,0.11038099515594939
659,-0.19116539468295646,0.04924587742247123
660,-0.27533230208138554,0.027327906920305057
661,-0.3164817332182059,0.06992286855751575
662,-0.3200344536091204,0.09703032151952386
663,-0.2946831873888465,0.05512000282058022
664,-0.25237358238007973,0.08834795218687375
665,-0.20486836093090754,0.09878692133476663
666,-0.1587785321077614,0.1105372825714
667,-0.11860693788505224,0.06069466897874579
668,-0.08702612714488202,0.1295328760939882
669,-0.06487835567704371,0.06614454255815054
670,-0.05117558617902139,0.11031132460916336
671,-0.04309948825598982,0.09896430227477009
672,-0.037349858129073855,0.13537975673340297
673,-0.03324123769868393,0.08126425451858753
674,-0.030041696676773633,0.10338425045614663
675,-0.027152509981021446,0.06733672887305395
676,-0.02412296336076938,0.07399450795237447
677,-0.020650353397022973,0.08366978177744777
678,-0.016579780030426844,0.06076233108355185
679,-0.011902972338713222,0.07758119552851975
680,-0.006707071979735804,0.11695264641973588
681,-0.000883424989974812,0.09969768382371917
682,0.005650175065875384,0.10191690315563975
683,0.012952437330639574,0.08663761093817418
684,0.02107192150130323,0.1320154713932278
685,0.030047037829012743,0.08310497867360703
686,0.03990604711907578,0.09343680159747163
687,0.0506670607309608,0.07216730300525015
688,0.06233804057829716,0.07622201105966885
689,0.07491679912887522,0.05854596608429558
690,0.08839099940464655,0.06135183010233971
691,0.10273815498172342,0.061970941038736994
692,0.11792774745407579,0.09877711845015967
693,0.134064682498176,0.10140669848654782
694,0.1510801737866851,0.03512159818820258
695,0.1687731068435161,0.0581482382422887
696,0.18694725763490186,0.0285321732303179
697,0.20541129256939558,0.11303315437050626
698,0.22397876849786974,0.053734976948527906
699,0.24246813271351678,0.10754449228886385
700,0.26070272295184965,0.041293521052488444
701,0.27851076739070046,0.12936432999058137
702,0.2957253846502216,0.07390119162806595
703,0.3121843707224912,0.03595954757467259
704,0.3277285729782184,0.08421032258482179
705,0.34220279125930386,0.08678410850730912
706,0.355456805692221,0.05637460945393984
707,0.36734541474928734,0.052131293066996445
708,0.37772831603016044,0.08181668972061377
709,0.3864700975768169,0.09291887279901213
710,0.39344023787355387,0.06265487457478158
711,0.3985131058469886,0.11145386212574701
712,0.4015679608660573,0.056539407089744025
713,0.4024889527420169,0.10000120376416388
714,0.40116463532624624,0.10052795113767915
715,0.3974200264055288,0.10412417236897395
716,0.39131664902990865,0.10910583324389103
717,0.3830568905271936,0.04763888867330357
718,0.3728387334601749,0.07014391221473268
719,0.3608557556266288,0.11255928361739097
720,0.3472971300593158,0.04250159200327674
721,0.3323476250259804,0.030790130050366585
722,0.3161876040293519,0.12636133131144253
723,0.2989930258071437,0.08491214399617233
724,0.28093544433205364,0.10796545720518246
725,0.26218200881176335,0.06921299206392514
726,0.24289546368893974,0.11614335205432146
727,0.22323414864123342,0.0716458500662576
728,0.20335205364781078,0.09594429112901766
729,0.18339939129302357,0.10611549048492751
730,0.16352236816505716,0.032114520842626185
731,0.14386279246938882,0.10522020316952199
732,0.1245580676464806,0.0671711099510538
733,0.10574119237177836,0.05487186964622855
734,0.08754076055571258,0.09026884864498293
735,0.07008096134369843,0.10375962231851384
736,0.053481579116134714,0.03214138461874401
737,0.03785799348840515,0.03341282629801775
738,0.02332036587777529,0.041148868743804724
739,0.009906640924860046,0.11948509133606613
740,-0.0024325677562516065,0.059966442789217284
741,-0.013746490048999282,0.08480301606143106
742,-0.0240839751086742,0.09158133118126337
743,-0.03349349136241901,0.08640432355941478
744,-0.04202312650922781,0.0903239554842503
745,-0.049720587519946374,0.11973134347031616
746,-0.05663320063727192,0.07042755564494307
747,-0.06280791137575314,0.11529331369115532
748,-0.06829128452179035,0.10604023038295726
749,-0.07312950413363525,0.08771374094755423
750,-0.07736837354139114,0.10310269573016326
751,-0.08105331534701303,0.08703355939589433
752,-0.08422937142430709,0.09517452916171149
753,-0.08694116202187066,0.055255375154914396
754,-0.08923229483453504,0.07601109772244999
755,-0.09114550009049124,0.03405351278829265
756,-0.09272318172338219,0.11225277307276336
757,-0.09400758496764178,0.09527128233612213
758,-0.0950406196903146,0.029557837269665637
759,-0.09586381503029646,0.05526233291096452
760,-0.09651831939833469,0.0898882839904772
761,-0.09704490047702863,0.035715304483033644
762,-0.09748224665878542,0.0819781485094586
763,-0.09783385184053703,0.07359426652626266
764,-0.09810221216026034,0.06759972054095434
765,-0.09829680148357148,0.09898918303847823
766,-0.09842642739594243,0.11740410014407841
767,-0.09849923120270135,0.10582808818555074
768,-0.0985226879290323,0.06263936697861995
769,-0.09850360631997537,0.08501775789449284
770,-0.09844812884042671,0.09473978545699818
771,-0.09836173167513847,0.08106497595841067
772,-0.0982492247287187,0.11794392988564606
773,-0.09811475162563149,0.04297484470377437
774,-0.09796178971019706,0.07117029899606937
775,-0.09779315004659152,0.1078977287226601
776,-0.09761097741884699,0.11960651271543397
777,-0.0974167503308517,0.047986390005246925
778,-0.09721130479657472,0.11539209288968523
779,-0.09699532878299526,0.11937807620015943
780,-0.09676934662361188,0.042613092644221855
781,-0.09653323704379481,0.08132711227525301
782,-0.0962862124887705,0.0529150658283801
783,-0.09602681912362103,0.05438561058102842
784,-0.09575293683328494,0.06247307461280396
785,-0.09546177922255634,0.10866392282733134
786,-0.0951498936160857,0.04316447988501083
787,-0.09479839398923151,0.08091048540910638
788,-0.0943921035017705,0.056237667752977824
789,-0.09394427655648013,0.04086729945414754
790,-0.09345791110269065,0.12046526818001817
791,-0.09292520184680195,0.10167680617709911
792,-0.09232754025228436,0.0671182735577255
793,-0.09163551453967826,0.10186930082012567
794,-0.09080890968659411,0.06576620749018332
795,-0.08979670742771265,0.020653886679858766
796,-0.08853708625478444,0.08802663362235899
797,-0.08695742141663058,0.08768724615184276
798,-0.08497428491914187,0.1011608041808679
799,-0.0824934455252796,0.09490635066453827
800,-0.07940986875507498,0.03778922555711551
801,-0.07560771688562953,0.10156514069123836
802,-0.0709603489511146,0.07387623630860371
803,-0.06533032977924924,0.08997742733706106
804,-0.05859846772210538,0.03766765896192933
805,-0.05069499928625746,0.10046335598534292
806,-0.04144716424351189,0.055446026390275474
807,-0.030731412093350088,0.1492478013113608
808,-0.018487651110720454,0.038387554635443
809,-0.004719287767037798,0.13171071919552432
810,0.010506772901452004,0.04628142862775341
811,0.027060127293670737,0.06391953251962362
812,0.044746873243709046,0.03853887085638653
813,0.0633096100208257,0.07769530579448893
814,0.0824274383294478,0.0627197475880985
815,0.10171596030917085,0.08470151294313244
816,0.12072727953475841,0.08967473920664519
817,0.13895000101614316,0.03990710286408274
818,0.155834126041935,0.04774346749951294
819,0.17096583984536437,0.03045319671536227
820,0.18382588579675155,0.05961090756592766
821,0.19395665566029366,0.12209772394169456
822,0.20100976627343312,0.10643999859107454
823,0.2047460595468588,0.08926446407866892
824,0.20503560246450425,0.07294907579512332
825,0.20185768708354912,0.05230304933225117
826,0.19530083053441935,0.10002785192263064
827,0.18556277502078547,0.06280143986383219
828,0.1729505026494266,0.0556627412827897
829,0.1578809724232084,0.068681451536045
830,0.14075828789098183,0.10891989753654455
831,0.12208758150959582,0.050935256915894324
832,0.10246174793596242,0.05889791418754053
833,0.08241193459500296,0.12105678297862836
834,0.06240754167963909,0.04355943458631112
835,0.042856222150805943,0.0783093539521117
836,0.024103881737443433,0.030299898201417413
837,0.006434678936498485,0.07407086037271364
838,-0.009928974987075317,0.10404934934908511
839,-0.024826416000317257,0.09408349732852592
840,-0.038158727302259866,0.09293558861326637
841,-0.04994962156004262,0.04795776074462791
842,-0.060326679799676146,0.09743880688267595
843,-0.06916960194310162,0.11907183337325458
844,-0.076534583131157,0.026363596949143128
845,-0.08268990049128883,0.06127661112072919
846,-0.08811591313755239,0.08927836113446252
847,-0.09350506217061144,0.1055905761065532
848,-0.09976187067773819,0.03755002356789375
849,-0.10800294373281367,0.06107279732028238
850,-0.11953498838969345,0.08830992637062378
851,-0.13570559975281238,0.035787059173886755
852,-0.1576646361951402,0.04904003053752452
853,-0.18493381888758478,0.05028193552745642
854,-0.21518083315753228,0.09790952483597136
855,-0.24421990617824088,0.0991969027009476
856,-0.2660106693073597,0.046499462233702694
857,-0.27265789715441574,0.05249567661173611
858,-0.25552283236532075,0.08088563777165808
859,-0.20860028924500978,0.09090697646057928
860,-0.12166038802708336,0.07236660618378227
861,0.009610448031814323,0.08680331581100413
862,0.1822018446410237,0.08820266984444207
863,0.38577947647586963,0.08255956192502537
864,0.6026850671776626,0.0696754111776199
865,0.8079363893536957,0.06951609001381213
866,0.9697562547560067,0.1300742075467818
867,1.0599172407146609,0.07420708553845817
868,1.063839127619829,0.031020161503308583
869,0.9795478840534154,0.06990678139591451
870,0.817611685176347,0.053016159627556014
871,0.601140912728573,0.10222814780451676
872,0.3656126332418829,0.08667257319197479
873,0.14299955205160672,0.10198880682553224
874,-0.05034029044919373,0.11029246722965072
875,-0.20288571871090197,0.0917803025121455
876,-0.3088211284558072,0.11208959116316038
877,-0.368036486678103,0.08395508796756117
878,-0.38612733077627986,0.0423264744320333
879,-0.371877504064849,0.09055339085867394
880,-0.3355891023681383,0.11037074459163772
881,-0.2888860979129611,0.07468104016118095
882,-0.2407662011808754,0.07515357561639097
883,-0.19757654826004845,0.07303292371291317
884,-0.16301370084525588,0.11547158284278561
885,-0.1381236462378826,0.09135874323411897
886,-0.12131382324716126,0.052718112040145516
887,-0.10993048744888821,0.10875699758978524
888,-0.1024320338921455,0.08254375067338218
889,-0.09750499694836054,0.05805689739312687
890,-0.09405143317039469,0.03174555141224115
891,-0.09118892129254269,0.09001720004219119
892,-0.08825056223053335,0.07013251169985064
893,-0.08478497908152886,0.08099330649634658
894,-0.08055631712412548,0.034639214900488956
895,-0.07554424381835279,0.05415734588649963
896,-0.06994394880567431,0.05563711059293019
897,-0.06392315403368566,0.03520111666746564
898,-0.05721770341372798,0.01927862485976615
899,-0.04975307862737598,0.04507309317534022
900,-0.041473794423717056,0.12599621036217323
901,-0.03233580226817418,0.036535220000106
902,-0.02230649034250582,0.11390005946184596
903,-0.011364683197033501,0.08045963978430214
904,0.0004997106441911314,0.044884710832652136
905,0.01328636280677966,0.08944553225698601
906,0.02698369028844818,0.03504439656439911
907,0.04156855656193603,0.06460353345929962
908,0.05700602087990974,0.06437891685775629
909,0.0732496336880499,0.1001443570007329
910,0.09032173371955055,0.11694672253989058
911,0.10826379886464131,0.09421148595676852
912,0.126853879329242,0.0875616255696711
913,0.14586777766605435,0.12891145474797866
914,0.1650895458178353,0.09331786596462681
915,0.18431148511739642,0.10384572802406952
916,0.2033341462876046,0.1248569262555414
917,0.22196632944138142,0.022561835530227742
918,0.2400250840817037,0.01613305988334177
919,0.25733570910160314,0.11290118906348708
920,0.27373175278416595,0.07407055867813946
921,0.2890550128025342,0.08696998092905882
922,0.3031555362199041,0.09097827232680039
923,0.31589161948952754,0.06667149752780693
924,0.3271298084547107,0.10951255303100423
925,0.33674489834881516,0.09699741179606433
926,0.3446199337952573,0.1003437390529494
927,0.3506462088075087,0.07479619474414086
928,0.35472326677112226,0.057722469741846694
929,0.35675818017110106,0.0806921252475363
930,0.3566636382467798,0.07020981455169013
931,0.3543599783251459,0.06914394473321508
932,0.3496457043336216,0.09899490963602121
933,0.34248272292918863,0.08312258975778716
934,0.3331333420736156,0.12565852161415836
935,0.3218507642359044,0.05331930413806669
936,0.3088776271491618,0.08984504805976692
937,0.2944460038105998,0.07328389387753437
938,0.2787774024815357,0.1107604864222904
939,0.26208276668739133,0.10272090130281811
940,0.24456247521769434,0.08192602110520301
941,0.22640634212607694,0.04911109829363843
942,0.20779361673027655,0.0953743523154103
943,0.18889298361213594,0.0532192860123403
944,0.16986256261760285,0.09663903775484294
945,0.15084990885673005,0.13936398858460616
946,0.13199201270367542,0.07195519434491618
947,0.11341529979670226,0.04937189417677449
948,0.0952356310381785,0.09660912184270436
949,0.07755830259457752,0.11270373312215581
950,0.06047804589647746,0.1201756407242238
951,0.044079027638562085,0.08119416909817792
952,0.028434849779619537,0.09642412176203502
953,0.013608549542544037,0.07190390684250667
954,-0.0003466285765137342,0.03148417616974127
955,-0.013384414443668467,0.09957892397896718
956,-0.02546805970260798,0.08908533131169702
957,-0.036571367338233636,0.03761763143415416
958,-0.046678590122808596,0.0483671186632003
959,-0.05578314476097472,0.08705771360816182
960,-0.06392177082564153,0.06101964646194855
961,-0.07116255429520056,0.11766181426611821
962,-0.07757124058262177,0.042697706719630565
963,-0.0832108115383347,0.0323435532614816
964,-0.08814148545022706,0.10633694442194062
965,-0.09242071704364548,0.03351221102632191
966,-0.09610319748139463,0.08752634313341105
967,-0.09924085436373796,0.09382816221808889
968,-0.1018828517283975,0.05781001785894849
969,-0.10407559005055318,0.07913390984284414
970,-0.10586270624284418,0.05511868311639334
971,-0.10728507365536757,0.04278666591882609
972,-0.10838080207567917,0.10816629646420035
973,-0.1091852377287933,0.0791689539459965
974,-0.10973096327718251,0.03802967001843925
975,-0.11004779782077818,0.018699427663642583
976,-0.11016279689696998,0.0900405579163533
977,-0.11010025248060615,0.07818184235959397
978,-0.10988169298399313,0.055073136675930195
979,-0.10952660414842301,0.06680072469944737
980,-0.10905598907686632,0.10118061331936629
981,-0.10848966137640083,0.1472703006649704
982,-0.10784467352457164,0.10372339120100658
983,-0.1071353144363824,0.058459994493404104
984,-0.10637310946429523,0.049402850011489884
985,-0.10556661857835961,0.09056253986769215
986,-0.10470792796428186,0.09755307689017252
987,-0.10380340125281293,0.07581036687230253
988,-0.10287072966443069,0.056035823163578455
989,-0.10192591698283371,0.0834997908977223
990,-0.10098327955494085,0.08829995605514027
991,-0.10005544629089187,0.08622057508340754
992,-0.09915335866404658,0.10164968569404619
993,-0.0982862707109858,0.07421890319729103
994,-0.09746174903151078,0.05896976583574394
995,-0.09668567278864308,0.09603546483903296
996,-0.09596223370862504,0.10963650069512273
997,-0.09529393608091953,0.0675065930361815
998,-0.09468159675820996,0.05039341191321866
999,-0.09412434515640014,0.047285809692805
1000,-0.09361962325461468,0.0528363158345097
1001,-0.09316318559519846,0.0819983332952733
1002,-0.09274909928371719,0.0340413492432151
1003,-0.09236974398895688,0.08459449295238862
1004,-0.0920150375444807,0.08651854335271647
1005,-0.09166728621119714,0.11335924936373531
1006,-0.0913043729175272,0.09796173910898914
1007,-0.09090247321063359,0.021889561729351442
1008,-0.09043589741409289,0.09772172648707401
1009,-0.08987705089845548,0.08572079869853755
1010,-0.0891966383372721,0.05341427279176917
1011,-0.08836367696731326,0.08626743304493095
1012,-0.08738467918892856,0.08021137129581704
1013,-0.08624794800300135,0.10492827077496772
1014,-0.08475196586074639,0.09540711395436816
1015,-0.08270414141965506,0.05889786170868492
1016,-0.07993092524366294,0.11146448717533118
1017,-0.07627780980314362,0.04674516182220214
1018,-0.07160932947491634,0.05510407617586112
1019,-0.06580906054223663,0.09230356612327846
1020,-0.0587796211948075,0.11057969798787046
1021,-0.050442671528766636,0.06452962088539163
1022,-0.04073891354670078,0.08891097958758827
1023,-0.0296280911576294,0.10691856523608846
1024,-0.017088990177023422,0.08081694241692138
1025,-0.0031194383267872227,0.06396622522226662
1026,0.012263694764734275,0.04443225507583573
1027,0.0290244975627442,0.061486266091342195
1028,0.047164025536343156,0.09071551955792541
1029,0.06669647661593102,0.09047048399864079
1030,0.08694887006504695,0.06355017860674562
1031,0.10721890974080424,0.054500921948777065
1032,0.12687277067545474,0.1222127656321356
1033,0.1453451465880877,0.04898244975369751
1034,0.1621392498846628,0.04187888578308768
1035,0.17682681165797953,0.08697986433372035
1036,0.1890480816877044,0.06398737817720114
1037,0.19851182844034737,0.03922361299539448
1038,0.20499533906928172,0.07597985575524535
1039,0.20834441941472864,0.07633669388952954
1040,0.20847339400376713,0.02257809395882019
1041,0.20536510605033015,0.03005125603000193
1042,0.19907091745520272,0.1579465992013331
1043,0.18971070880602875,0.044178021105447725
1044,0.17746933216001742,0.12880628962405283
1045,0.16265485026431076,0.0654851563108977
1046,0.14589946960719552,0.04772336085235311
1047,0.12783806947397613,0.10400850847511835
1048,0.10904143552105218,0.07048035478251474
1049,0.09001625977595024,0.10911431148753349
1050,0.07120514063728994,0.12280104508270437
1051,0.052986582874818965,0.04821938009883155
1052,0.035674997629378445,0.07049583029218691
1053,0.019520702412935954,0.10561315615813457
1054,0.004710258909601601,0.11175937862390396
1055,-0.008629344188038323,0.08235403510036725
1056,-0.020431986128528465,0.079964661835811
1057,-0.030695570339823626,0.04997456620327982
1058,-0.039482216662983044,0.09263399087334069
1059,-0.04691850991901514,0.056150825719396884
1060,-0.053121444826188434,0.04054438745663013
1061,-0.058223246465046424,0.10005539878263163
1062,-0.06301363623867805,0.09926109112420002
1063,-0.06839151097327197,0.05097847647631162
1064,-0.07530446134674736,0.08199178080126712
1065,-0.08474877188874368,0.12695803988966073
1066,-0.0977694209806339,0.05279972800570285
1067,-0.11546008085550666,0.13459655597240883
1068,-0.13896329743654223,0.09706089272355485
1069,-0.16873700077195392,0.1148922710951074
1070,-0.2000489122376463,0.07801728444762818
1071,-0.22619221659919014,0.066865681649811
1072,-0.24024788753566698,0.11993276362119942
1073,-0.23508468763962978,0.08922055614978255
1074,-0.20335916841712043,0.06750268049107867
1075,-0.13751567028768658,0.08067720742501325
1076,-0.02978517283281032,0.11180343570507029
1077,0.1217172379925121,0.04910129178974108
1078,0.308189240473632,0.05441212943644983
1079,0.515534572899839,0.06080045383298236
1080,0.7247019263666659,0.05476842098100772
1081,0.911685003508993,0.09476414184783545
1082,1.0475229388120695,0.09625548805052157
1083,1.098514627180951,0.0651963108769136
1084,1.0481569796833328,0.07607557024725906
1085,0.916695822256552,0.0657703791006443
1086,0.7283466220366764,0.08573333825876032
1087,0.5075391978562599,0.08582445379474801
1088,0.27891772024403094,0.09980471187966308
1089,0.06734071142526064,0.034617068974725176
1090,-0.10361362124532504,0.1319016796015156
1091,-0.2269950221855742,0.043112303882259825
1092,-0.30418772544265926,0.06877640373427546
1093,-0.33874932219700027,0.08119660989826855
1094,-0.33693934581414653,0.0651082172660384
1095,-0.30771927184470843,0.11101020457632364
1096,-0.2627525180243647,0.09987389502692309
1097,-0.21438843824883078,0.07827792377851812
1098,-0.16908592937311973,0.12127065135752045
1099,-0.13050981073317622,0.08308794927593598
1100,-0.1006856697168791,0.07885359498554176
1101,-0.0799996984886982,0.06101960194094281
1102,-0.06719869398964158,0.05755565654194198
1103,-0.05939005793729363,0.07518222506215548
1104,-0.05344209398668037,0.07167297130963195
1105,-0.048759661615717445,0.10809197845787907
1106,-0.04470208440618546,0.12396476661542212
1107,-0.0407521122015746,0.09338792729100741
1108,-0.036523311465698684,0.05196934641313396
1109,-0.031759824179018216,0.044811286195302606
1110,-0.02633650662135067,0.09313111979647047
1111,-0.020259063858756032,0.0813513754844201
1112,-0.01359724608583969,0.0465168973966414
1113,-0.006242272081882892,0.05374982498351019
1114,0.0018790118495451919,0.1322118147365276
1115,0.010822016562369394,0.10956836087527679
1116,0.020630445118489722,0.08692271596516342
1117,0.03133629278776567,0.10789049618613987
1118,0.042959847048034044,0.10812491875933279
1119,0.05550968758508975,0.11954959819398626
1120,0.06898268629270611,0.0692909196389691
1121,0.08336400727261299,0.05683031787515996
1122,0.09862710683452065,0.0913181779487446
1123,0.11473373349609416,0.07926495480536148
1124,0.13163392798298015,0.0784422928110965
1125,0.14934691779986226,0.10319431937234085
1126,0.1678506196985884,0.0920284137109171
1127,0.18692940852437498,0.08706119109785608
1128,0.20637076678769467,0.019983374621225534
1129,0.2259679114430402,0.08169575401555362
1130,0.24552158763220056,0.05875321266374895
1131,0.2648406951509534,0.05439642949612772
1132,0.28373999692183305,0.07152999281263586
1133,0.30203994633628495,0.08019478938736668
1134,0.31956668725469817,0.061117942382835744
1135,0.33615205400637316,0.07865678538813375
1136,0.3516335713895533,0.06215598577014628
1137,0.3658544546713947,0.04781408746168058
1138,0.37866360958799516,0.09715253694051469
1139,0.38991563234436616,0.08003456651250565
1140,0.39947080961445897,0.07318620472656799
1141,0.4071951185411423,0.07786554337641652
1142,0.41296022673622,0.1108906011755628
1143,0.41664349228041747,0.09170559941307804
1144,0.4181279637233918,0.10652953436319852
1145,0.4172432231444151,0.07729605327897947
1146,0.4136475184709152,0.12494411181570163
1147,0.4075302664858427,0.07469277194911549
1148,0.39915444798664,0.04725722701800481
1149,0.38877312638454997,0.033346965240266375
1150,0.37662944770460094,0.09834299560360242
1151,0.3629566405856239,0.027189699305155277
1152,0.3479780162802319,0.07785962775693085
1153,0.3319069686548448,0.10031468579334005
1154,0.314946957972492,0.06053171859175962
1155,0.2972903470572527,0.055389693037890673
1156,0.279117622109774,0.0727525673783742
1157,0.2605991672207425,0.08414032151577927
1158,0.24189544080895808,0.1455817400968461
1159,0.22315672136412884,0.09914701206283315
1160,0.2045230598770664,0.09420386478470502
1161,0.18612457206991867,0.09170907789349128
1162,0.16808145627864365,0.1080466719677361
1163,0.15050399345297633,0.03144374295876962
1164,0.1334925471564614,0.11045480132296488
1165,0.11713756356642106,0.07092408301330426
1166,0.10151957147398581,0.10271255178142388
1167,0.08670918228406588,0.0698172936930979
1168,0.07276709001537802,0.11734780916325623
1169,0.059744071300419754,0.053815066012060056
1170,0.04768098538549431,0.06117818280349727
1171,0.03660877413068591,0.09728637532795377
1172,0.02654846200988452,0.05621426545242041
1173,0.0175111561107629,0.09632540901822154
1174,0.009491218515143136,0.07672412667157538
1175,0.002431217892339529,0.06916503774943307
1176,-0.0037432452506239084,0.02917189295916941
1177,-0.009103666552444743,0.017929871941225143
1178,-0.01371859080714397,0.06890267615670444
1179,-0.01765360803543635,0.06620292232162511
1180,-0.020970755518726375,0.052821200977594525
1181,-0.023727875607951397,0.05158303067476269
1182,-0.025979705798459832,0.10531192299745736
1183,-0.02777803274093188,0.08115291792645166
1184,-0.029171692241375204,0.07362085600468264
1185,-0.030206569261128483,0.07733784678797456
1186,-0.030925597916858373,0.08607198989935058
1187,-0.031368761480562,0.07931508232486054
1188,-0.031573092379565015,0.1071225940546636
1189,-0.03157267219652319,0.07299863737974298
1190,-0.03139863166942119,0.08374332998284872
1191,-0.03107915069157317,0.07642020191360242
1192,-0.03063945831162279,0.07596872973568215
1193,-0.03010183273354299,0.12144319443060143
1194,-0.0294856013166362,0.09965221732443405
1195,-0.028807140575533914,0.10099446166240486
1196,-0.02807987618019753,0.05293055535319337
1197,-0.027314282955917278,0.0823105166895407
1198,-0.026517884883313303,0.11009982388064557
1199,-0.025695255098334577,0.1121332421680222
1200,-0.024846734647924664,0.08114711417762764
1201,-0.023969643760336036,0.08775947396778273
1202,-0.023073460419671957,0.08191732956959581
1203,-0.022167843665482835,0.07240487219647603
1204,-0.0212610635810348,0.08028122293044153
1205,-0.020360240519148864,0.12082406078549558
1206,-0.019471726717940244,0.06208841216823894
1207,-0.018600584295796228,0.048504339540114114
1208,-0.017750485720651507,0.07577783374383279
1209,-0.016923513164003263,0.08142100104888116
1210,-0.01611977532824173,0.1047775412213354
1211,-0.015337885884549481,0.05469340462961712
1212,-0.014575069037447222,0.030395954568696065
1213,-0.013827159524791455,0.039195006476583895
1214,-0.013088602617776722,0.1034614588520883
1215,-0.012352454120933682,0.07421773540328751
1216,-0.011610380372130705,0.07628699999120603
1217,-0.01085265824257251,0.05837571785924341
1218,-0.010068175136801447,0.06759195552909503
1219,-0.009244428992696174,0.0992887158583247
1220,-0.00836752828147298,0.07837260647222868
1221,-0.007422192007684618,0.11499225517926902
1222,-0.006391749709221312,0.06923173048451486
1223,-0.0052581414573095965,0.07290081913885944
1224,-0.004009126250833797,0.04469555637193062
1225,-0.0026525608985953604,0.09055400748144955
1226,-0.0010741694958998696,0.09212421866684328
1227,0.0008591564083552669,0.13581253389305245
1228,0.0032754486562860704,0.1340512876113588
1229,0.006297662521272496,0.10810770472296949
1230,0.010043839814014003,0.11026357809949291
1231,0.014627480153753099,0.06277221104726408
1232,0.020157115806954534,0.03971824340222607
1233,0.026736202431103983,0.09719063536636843
1234,0.03446311907469623,0.09514200435538939
1235,0.04343116817724902,0.08877597024132439
1236,0.053728575569287625,0.10236995351478365
1237,0.06543849047236158,0.1350390309921137
1238,0.07863898549902626,0.06353527625312286
1239,0.0934046376116399,0.05996936551570695
1240,0.10993054801542113,0.06451743330898445
1241,0.12794784959637837,0.09921607896062604
1242,0.14694524512082555,0.12754984946167977
1243,0.16643142869059366,0.027955424455121218
1244,0.18593508574299789,0.10365097994060792
1245,0.20500489305087252,0.12538751817888785
1246,0.22320951872253558,0.09793731076161226
1247,0.2401376222018235,0.10531705219753214
1248,0.25539785426805744,0.07529646218634571
1249,0.26861885703607513,0.0862090447353755
1250,0.2794492639562021,0.07474446946051952
1251,0.28755769981427676,0.09163252230915786
1252,0.2926327807316297,0.038369738215981115
1253,0.2943831141650989,0.04121496444305791
1254,0.2925372989070208,0.10183823961459418
1255,0.28680382010471345,0.056273249412030046
1256,0.27736043143699923,0.05327884126366662
1257,0.2648908067433016,0.05731217999505985
1258,0.2500414770231285,0.029171102186319586
1259,0.23341007859991755,0.07517716063058312
1260,0.2155449282262872,0.02283419385378209
1261,0.19694527794749508,0.08292109213674222
1262,0.17806154509929098,0.14411161767839042
1263,0.1592953137210491,0.11138029417193836
1264,0.14099933455580044,0.09666758093000158
1265,0.12347752505020074,0.09287288284209196
1266,0.10698496935456184,0.0678345191196811
1267,0.09172791832282119,0.0836302926849214
1268,0.07786378951257106,0.07125583202079469
1269,0.06550116718503125,0.10704090537912996
1270,0.05469980230507379,0.04148844290418924
1271,0.045470612541201064,0.06296528528383663
1272,0.0378441221993339,0.08308148142170672
1273,0.03267131419799376,0.030512667246652487
1274,0.02886937792359275,0.053037004124315036
1275,0.02488676630601463,0.10602913507348286
1276,0.019447338690692532,0.0908849431705911
1277,0.01155036083859959,0.06383032311662408
1278,0.0004705049262604153,0.10423717719459173
1279,-0.01424215045426455,0.05649527109153554
1280,-0.032762083304515896,0.06626171993617318
1281,-0.05498816897383109,0.047139872365146926
1282,-0.08054381157174002,0.05866289772472231
1283,-0.10877700875141033,0.06774230270329394
1284,-0.141041573607549,0.11295658899431857
1285,-0.16684922031170635,0.029437932876094117
1286,-0.16940399655965538,0.029702366787535576
1287,-0.13690061222761085,0.06778370486476311
1288,-0.06254233676511263,0.07905783313968387
1289,0.05545900080491015,0.08453456075722948
1290,0.21388301188627196,0.08172222843573855
1291,0.4045007483093262,0.09452979346325623
1292,0.6140747023312365,0.05965990988870057
1293,0.8243588066356524,0.07661219833129583
1294,1.0113058279768419,0.0831455669689216
1295,1.140457607796697,0.10281750294205526
1296,1.187014262304223,0.08101288666310628
1297,1.1416333711330844,0.050143850059343194
1298,1.0096185921495455,0.048090700439925804
1299,0.8109196614525441,0.07823823072663058
1300,0.5799861504179131,0.10721500751474386
1301,0.3516772303293261,0.03856985312829218
1302,0.14699021698553866,0.07103799593024707
1303,-0.01912439115203879,0.07198863262456341
1304,-0.1383316004511166,0.12889702094964037
1305,-0.20891177423984056,0.07682534876348937
1306,-0.2357597749374555,0.12939975457558994
1307,-0.2271604362862135,0.09950088499465272
1308,-0.19376067799136995,0.11922311490654292
1309,-0.14800937350034576,0.08223337301332019
1310,-0.0995939252216846,0.03549729599765346
1311,-0.05542901040760433,0.07777145192497531
1312,-0.019656655148691183,0.0349358020072754
1313,0.006353761362674643,0.08326664998760759
1314,0.0239888867775623,0.08872685666445632
1315,0.0358726790520548,0.12743392015014526
1316,0.04369423907658362,0.09240387181138193
1317,0.04886677557804928,0.018352994611316776
1318,0.05256246005778042,0.11198727401050512
1319,0.05571242679152314,0.1210347250391226
1320,0.059006772829449036,0.14124016819955623
1321,0.0628945579961485,0.09451956622716605
1322,0.0675838048906373,0.10791215945840761
1323,0.0730414988863491,0.10816643928196285
1324,0.0789996089848871,0.015127512911368152
1325,0.08548177381791808,0.040988417161525695
1326,0.09270332001939727,0.07740770874874317
1327,0.10072505586210853,0.08368478601063818
1328,0.10959766427634472,0.11237560387554697
1329,0.11936170284989378,0.10386610059472519
1330,0.13004740992792552,0.08038544059768436
1331,0.14167318711802196,0.04173949620040483
1332,0.15424641933108288,0.04233904657301484
1333,0.16776435846004148,0.09239685041195532
1334,0.1822141310553453,0.0662430596026568
1335,0.19761601941689474,0.09532261650810481
1336,0.21422291767948867,0.10688569640391012
1337,0.2318812715427682,0.07066478137711807
1338,0.2503541452333965,0.051193849286013934
1339,0.26941270626202096,0.06320506251307356
1340,0.28883622542330517,0.038549022466641276
1341,0.30841207679589633,0.08921461747666944
1342,0.3279357377424581,0.09635229531572628
1343,0.34721078890963747,0.10265430548900062
1344,0.36604891422809804,0.07277115724929165
1345,0.38426990091248725,0.07925218113807762
1346,0.4017016394614678,0.06250422608582337
1347,0.4181801236576878,0.11596595105385014
1348,0.4335494505678098,0.07632649985012305
1349,0.44766182054248216,0.11581479405785508
1350,0.46037753721636615,0.08856557047939745
1351,0.4715650075081119,0.08146229371798204
1352,0.4811007416203792,0.08206237013583861
1353,0.48886935303981927,0.03795338849169337
1354,0.49476355853709036,0.07767924389733778
1355,0.4986842864298687,0.09768616912564354
1356,0.5005418319829364,0.07306167530235746
1357,0.5002554114424266,0.06798398992567428
1358,0.4977523580763915,0.08356154233931085
1359,0.49296810860744933,0.08669126978665327
1360,0.4858160487363858,0.03541382624297626
1361,0.4762834460938174,0.06735659010797203
1362,0.4646331152535774,0.08487987408435903
1363,0.4511343169321844,0.08955578479752883
1364,0.43604450732385264,0.0568854032480841
1365,0.4196093381005155,0.08544500869014292
1366,0.4020626564118,0.03577393711552865
1367,0.38362650488505395,0.04526333231329119
1368,0.36451112162531685,0.13208941449967831
1369,0.34491494021535124,0.06285056332001583
1370,0.3250245897156091,0.08017744321137743
1371,0.30501489466426734,0.0710923837275773
1372,0.28504887507719145,0.058288296159923994
1373,0.2652777464479713,0.09588674204556613
1374,0.24584091974788655,0.11458567720782635
1375,0.2268660014259402,0.07230302733908428
1376,0.20846879340882582,0.0771850900991451
1377,0.19075329310095987,0.13427051326264294
1378,0.17381169338444968,0.07070073231853335
1379,0.15772438261912453,0.07365433691846203
1380,0.14255995662125698,0.0798132378689326
1381,0.12837539680021764,0.039193596889610084
1382,0.11521603216517333,0.07794545567805591
1383,0.10311539146450859,0.10209640131423514
1384,0.09210026086346734,0.09320619605222477
1385,0.08217663285499695,0.10852354486346741
1386,0.07327757435792435,0.10319333464393081
1387,0.06533167945166375,0.04075571477973929
1388,0.058270322776105235,0.07881812797842455
1389,0.052027659531629265,0.08969174399936278
1390,0.04654062547909384,0.13474327762907545
1391,0.04174893693984565,0.11586289833261752
1392,0.0375950907957108,0.07334982595968918
1393,0.034024364489002354,0.09839161954174996
1394,0.030984816022513958,0.08258681051934187
1395,0.028427283959525443,0.08327794990962835
1396,0.026305387423798003,0.09027440316918015
1397,0.024575526099578138,0.09912745216619145
1398,0.023196880231594535,0.07002471550475196
1399,0.022131410625060643,0.07683388003931202
1400,0.02134385864567243,0.06361082054218559
1401,0.020801746219610187,0.09165653656211463
1402,0.020475375833537306,0.08054653363230264
1403,0.020337830534601205,0.053113696446331495
1404,0.02036497393043217,0.10333631994565368
1405,0.020535380100414335,0.060817276359571903
1406,0.020828828992444034,0.04580122527741955
1407,0.021226326896968448,0.06689217298998544
1408,0.021711594671215258,0.06309598685429141
1409,0.022271133732895743,0.09624299321512753
1410,0.022894148061793684,0.06419236704824208
1411,0.023572030597447155,0.05989697047692563
1412,0.024299624008829596,0.07900673192361211
1413,0.025077622612067158,0.043223218352439294
1414,0.02589583702858656,0.04281001829738815
1415,0.02674300944747976,0.10410367699306437
1416,0.027609148032544918,0.07136520039266218
1417,0.028485526922287053,0.046447643106670544
1418,0.029364686229917666,0.05042767550065852
1419,0.030240432043354897,0.062362303739053195
1420,0.031107836425223256,0.11049818217012902
1421,0.03196323741285409,0.06174303747761738
1422,0.032804239018284886,0.030304251874308248
1423,0.0336297112282605,0.03812541094768864
1424,0.034439790004231204,0.09198086108615108
1425,0.03523587728235506,0.060938696018063045
1426,0.036020640973495645,0.04952422863134658
1427,0.03679801496322382,0.04387383187214323
1428,0.03757319911181667,0.07747098626052783
1429,0.03835265925425796,0.09196527787543532
1430,0.03914417228372194,0.13471508425935674
1431,0.03995830224650258,0.10394881777253358
1432,0.04080873087939021,0.106749501663326
1433,0.041710517887080946,0.06603965843908326
1434,0.04267998894897683,0.11537886328751165
1435,0.043711991939809236,0.10210031540882199
1436,0.04483214933586835,0.09983918155827888
1437,0.04615734006092929,0.06254063957974311
1438,0.047804938342654646,0.07636173714137999
1439,0.04989062018364145,0.12294074977716116
1440,0.05252836336141792,0.05598475585708077
1441,0.055830447428447574,0.03501911517928283
1442,0.05990745371212415,0.04501820178520878
1443,0.06486826531477798,0.12719990564818118
1444,0.07082006711366826,0.06808860875217032
1445,0.07786834576099222,0.0857839144680114
1446,0.08611688968387422,0.0777476989631989
1447,0.0956677890843787,0.09817565478702256
1448,0.10662143593949507,0.08867133804528096
1449,0.11907652400115483,0.04282379951877931
1450,0.13314030417704042,0.08134208788061689
1451,0.14904372917270406,0.07301903720943843
1452,0.1664658834184465,0.10435478151668989
1453,0.18490813822669952,0.09881461213086058
1454,0.20388898043736478,0.09234313875538266
1455,0.2229440055053933,0.06854464072001962
1456,0.24162554110390919,0.08586287197147002
1457,0.25950245370859093,0.031746644293788776
1458,0.27616067769170055,0.05001087707888513
1459,0.2912032629530004,0.05149175239212271
1460,0.3042503869968608,0.1509845964760293
1461,0.314939675424843,0.03701680819247261
1462,0.322926235566657,0.06626033968864772
1463,0.32788230910241073,0.0820529343027564
1464,0.32949725323969137,0.019206439586139826
1465,0.32747754071357543,0.11020178096624815
1466,0.3215124045213536,0.07693836812355584
1467,0.3116759826405868,0.022163100830217473
1468,0.2986685105859052,0.1088912346894379
1469,0.283170773005074,0.057934326244274026
1470,0.26581067734507297,0.12996104516908516
1471,0.2471632538520695,0.07455713737281942
1472,0.22775065557144875,0.09877534421247956
1473,0.20804215834778136,0.11467200319821008
1474,0.18845416082485675,0.0860679905327845
1475,0.16935018444564923,0.04853200103929682
1476,0.1510408734523526,0.07252975586085869
1477,0.13378399488634543,0.08161790765259293
1478,0.11778443858822456,0.07251477564563746
1479,0.10319421719777366,0.05529660756271042
1480,0.09011246559182937,0.10185383774652339
1481,0.07858538211268708,0.09529826862487507
1482,0.0686061770671506,0.125865081148783
1483,0.0601151714203654,0.06088543070413084
1484,0.05370850629739629,0.05502851417631515
1485,0.04952805925734244,0.052316332004009404
1486,0.045418463141470175,0.11730457773085307
1487,0.039609475170515974,0.09180864261803373
1488,0.030790632446966282,0.05277223913954251
1489,0.018111251955046696,0.05343921440102124
1490,0.0011804305607370853,0.11474083770276501
1491,-0.019932954988249936,0.0824553876950828
1492,-0.04470024806243989,0.05169657097407746
1493,-0.07213301215063293,0.09484648060991532
1494,-0.10078303085986133,0.07401263989560576
1495,-0.12964266365144989,0.04232553268075864
1496,-0.1494689387791063,0.07974850040505514
1497,-0.1445693628695138,0.09050742014639522
1498,-0.1039768097227226,0.06925279483752918
1499,-0.021659889951372437,0.08211814159513703
1500,0.10347704901922883,0.07308178186870153
1501,0.2675939229512525,0.11518642745164263
1502,0.46191491079413144,0.08934692833433153
1503,0.6727284546848409,0.12245172265131614
1504,0.8809580089290079,0.13329112342775623
1505,1.0537399249501467,0.0581532271271827
1506,1.1564313201481458,0.0932042405283659
1507,1.1695408789135993,0.08843022743888589
1508,1.089308152586081,0.07710089963814411
1509,0.927703695375659,0.11625975512067918
1510,0.7124290643358033,0.08987927318593866
1511,0.4801098667812261,0.08969311671932276
1512,0.25694880404451703,0.08318916457588696
1513,0.06297323811100641,0.04407351053243748
1514,-0.08872846044927778,0.05307621326667873
1515,-0.19202649541115635,0.048997475276183665
1516,-0.24774964489403542,0.07417150606893003
1517,-0.26285849047483756,0.1288323849531573
1518,-0.2450833870542786,0.04010422134343091
1519,-0.20712487406066057,0.07136777677815562
1520,-0.1602579375250582,0.08156065023187574
1521,-0.11309344005816646,0.06037996801669543
1522,-0.07157812085037481,0.06254646065674588
1523,-0.038994595671689884,0.11401195609621417
1524,-0.015961356871805586,0.12082979135386972
1525,-0.0005254438809526854,0.1338396602461687
1526,0.00976742718306518,0.09905171443848228
1527,0.016433551092665984,0.0660206793177787
1528,0.020753432865838098,0.11358150246860282
1529,0.023791346828320317,0.12097537148382802
1530,0.026395337072140816,0.07682573825532685
1531,0.029197768310872632,0.11970374036088097
1532,0.03261639518977288,0.04925270039345452
1533,0.03685303794291295,0.03545600300208102
1534,0.041893286112106576,0.0552890018082585
1535,0.04750649854691649,0.12880600735919626
1536,0.05355235218908621,0.09722669063835385
1537,0.060315440367684124,0.09584558823942564
1538,0.06786306278537574,0.0788249354194978
1539,0.07624733717112782,0.052397957710771145
1540,0.08550897527893289,0.08253489730982898
1541,0.09567728288779424,0.1123867291121854
1542,0.10677015980174316,0.05840924502068139
1543,0.1187940998498194,0.0722412776252941
1544,0.13174419088609265,0.1310544500405846
1545,0.14560411478963992,0.08811027534586086
1546,0.1603461474645689,0.09422313001242805
1547,0.1759536457267425,0.10427969363121312
1548,0.19251875912030703,0.11613015943109913
1549,0.20989076460466544,0.08377308683954512
1550,0.22786997415077398,0.13090570952251948
1551,0.2462606621000513,0.041109315873491765
1552,0.2648710651644084,0.10307858544402257
1553,0.2835133824262185,0.08982367387107563
1554,0.30200377533834805,0.05251925086278024
1555,0.32016236772015116,0.08543418186480597
1556,0.33781291388910134,0.086901634169729
1557,0.35478189302471336,0.0805644691038524
1558,0.3708994582896661,0.1102874528549571
1559,0.3859997252171011,0.07580498278853452
1560,0.39992077171065155,0.09209410403811187
1561,0.412504588979171,0.07671806327150009
1562,0.4235967741660374,0.07529938278820708
1563,0.43304672941866296,0.04552316083160101
1564,0.4407078185624388,0.09934625412188908
1565,0.44643736779322685,0.08479133236540061
1566,0.45009666567737106,0.09350818827470084
1567,0.4515509631516898,0.1082421544263282
1568,0.4506201228441121,0.057799923955619475
1569,0.4469443048564724,0.050862251444375076
1570,0.4406954385704247,0.044345604976770314
1571,0.4321330716428688,0.0910918553861791
1572,0.42150701011663116,0.0682131346444393
1573,0.4090573184204816,0.05564087666067058
1574,0.39501431936911396,0.08178315763470552
1575,0.3795985941631682,0.07161331352061649
1576,0.36302098238920555,0.09646453519972283
1577,0.34548258201973553,0.10790529411652632
1578,0.32717474941318725,0.08950064921082669
1579,0.30827909931393965,0.09813629152509908
1580,0.28896750485228995,0.047632975191484975
1581,0.2694024751906618,0.0535741715056127
1582,0.2497385699701613,0.08319854634113018
1583,0.2301211382593347,0.049077908751345205
1584,0.21068578759537965,0.07110255764924735
1585,0.191558383901446,0.06869661287001944
1586,0.17285505148660002,0.07185960702205564
1587,0.1546821730458597,0.07252892185903453
1588,0.1371363896601604,0.08538448675206604
1589,0.12030460079638833,0.11367093648928776
1590,0.10426396430734815,0.09205351720266983
1591,0.08908189643179402,0.027515469794750107
1592,0.07481607179440015,0.13569428902602695
1593,0.06151442340578865,0.04741845814515592
1594,0.04921514266250279,0.10721153310578185
1595,0.037946679347032455,0.04498617151557603
1596,0.027727741627791243,0.043490514783155874
1597,0.018556840181012814,0.11109846986422316
1598,0.01037462215739055,0.04830613026505773
1599,0.003108971865199044,0.08821713376065761
1600,-0.0033091643674811313,0.10260463152999535
1601,-0.008945854104144613,0.11349836854471203
1602,-0.013864178799873731,0.027050451512596645
1603,-0.018124233801327636,0.0783594774136855
1604,-0.021783128346751543,0.04124940153723426
1605,-0.024894985565969096,0.08791996716828432
1606,-0.02751140157447143,0.12433219186155031
1607,-0.02968376964331563,0.08685687528734891
1608,-0.03146154026681212,0.10725876858483863
1609,-0.032891179673294434,0.1025947928556865
1610,-0.034016167982679736,0.11041182790711437
1611,-0.03487698680060358,0.10169819310519757
1612,-0.0355108121682136,0.11710243854418792
1613,-0.03595149437097398,0.0967248562212157
1614,-0.03622988113707466,0.0942130921403584
1615,-0.036373834086287124,0.13733358345585567
1616,-0.03640822872996506,0.0666134369809346
1617,-0.036354954471043616,0.03490791853072461
1618,-0.03623291460404024,0.08509049988611646
1619,-0.03605802631505378,0.05041724290440269
1620,-0.03584322068176526,0.09004605311195722
1621,-0.035598442673437376,0.04372609001433339
1622,-0.03533065115091494,0.0673136236493938
1623,-0.03504381151212854,0.043581012232379326
1624,-0.03473591915907194,0.06950877722287503
1625,-0.03441394244026552,0.10711560102756615
1626,-0.03409078967626277,0.05391767089450529
1627,-0.03377787021012386,0.1291860290124657
1628,-0.03348509440741668,0.05520242853184089
1629,-0.0332208736562162,0.05075292262820299
1630,-0.03299212036710479,0.10705181947809378
1631,-0.03280394435967685,0.05970623027605822
1632,-0.03265758290777381,0.07605618827176715
1633,-0.03255165751818721,0.027503590714384296
1634,-0.0324832842127245,0.06717507431294335
1635,-0.03244808003570063,0.04168240162985152
1636,-0.0324401630539377,0.11876657591934738
1637,-0.03245215235676514,0.12108308601366446
1638,-0.032475168056019826,0.07751471936535279
1639,-0.03249883128604545,0.07718859448495705
1640,-0.03251126420369351,0.07631138243890496
1641,-0.03249908998832253,0.06666041651020674
1642,-0.032447432841798116,0.11815651510413389
1643,-0.03233991798849361,0.03469293639778464
1644,-0.03215867167528913,0.10010928790127462
1645,-0.03188432117157262,0.11371060717139306
1646,-0.031495994769238575,0.04056371599790854
1647,-0.030977865657439353,0.10550145769031402
1648,-0.0303121452139614,0.08130757561092679
1649,-0.029382648475888413,0.07750586125110959
1650,-0.028062666815996895,0.07634228071503074
1651,-0.026228369184919324,0.08644995910099028
1652,-0.023758802111141696,0.019153150473399015
1653,-0.020535889701007004,0.131729730497418
1654,-0.016444433638710346,0.06532187879373778
1655,-0.011372113186305193,0.10946531171366528
1656,-0.005209582641818451,0.07283823574995389
1657,0.002148628194104427,0.09907831065418181
1658,0.010804526929082132,0.08924672157376423
1659,0.020857236174130822,0.07138991834069254
1660,0.03240300096242018,0.12713162369138653
1661,0.04553522948945381,0.08151237609198692
1662,0.0604133670464087,0.09193271582057802
1663,0.07686035857645475,0.11295435546620494
1664,0.09447532083454971,0.05576085774154622
1665,0.1128548982176353,0.08387524618754258
1666,0.1315932627646628,0.13298990958737605
1667,0.15028211415658269,0.08374459187233615
1668,0.16851067971633163,0.07855132742041411
1669,0.18586571440886082,0.0346783159719242
1670,0.20193150084110448,0.12235856144592841
1671,0.21628984926200967,0.0380375705559246
1672,0.22852009756250904,0.09073368141950258
1673,0.23819911127554538,0.04483041238246433
1674,0.2449012835760502,0.07388239931026434
1675,0.24819853528096097,0.057383076751118575
1676,0.24765678095079618,0.05255194535151771
1677,0.24319986477807967,0.11954306881105416
1678,0.2352741470494267,0.07871355450033331
1679,0.22434793689655988,0.10723648210767903
1680,0.2108801138376087,0.09885940944574136
1681,0.19532009627462335,0.05892468808974493
1682,0.17810744049594662,0.05511494839109413
1683,0.15967195906036125,0.07539107804768247
1684,0.14043402784922007,0.06494122234718669
1685,0.12080459313025864,0.08614080051467898
1686,0.10118517155762724,0.07905315957062704
1687,0.08196785017185797,0.14045131691190177
1688,0.06353528639989811,-0.5937520507932171
1689,0.046260708055076816,-0.30697395742704975
1690,0.030507913337137524,0.42632440493619306
1691,0.016717945543062007,-0.039042657662194245
1692,0.005036562470586878,-0.7202132169859488
1693,-0.004924098302164476,0.108152097429516
1694,-0.013582791890229505,-0.8968981690067067
1695,-0.02137707501558014,-0.549891395078425
1696,-0.02876330600710645,-0.08189131980802364
1697,-0.03621664480063148,-0.01701328361608776
1698,-0.0442310529388971,0.47153113469113733
1699,-0.05331929357157837,0.07097353343969925
1700,-0.06401293145526825,0.14139963830357577
1701,-0.07686233295349444,-0.6736645595078883
1702,-0.09243666603670021,0.6344811201212102
1703,-0.11132390028226691,0.1864601217968508
1704,-0.13413080687448684,0.05999063029562644
1705,-0.16148295860459627,-0.09999848489441561
1706,-0.19304159220444977,-0.7283026801239639
1707,-0.21943546620735258,0.5788398223494623
1708,-0.228217246623131,0.09282498232827452
1709,-0.20970832886997587,0.6839112761735129
1710,-0.15705964687878549,0.5425551496053085
1711,-0.06625167309312471,-0.5330339916027841
1712,0.06390564309187177,-0.02886627919601671
1713,0.23177324226208318,0.020928947371653628
1714,0.43315467589734874,0.4414719651934796
1715,0.658128887730969,-0.9358310603458349
1716,0.865635779424851,0.1265632073494238
1717,1.0180526255119133,-0.35297355828129595
1718,1.0910611844973608,-0.7024637303699948
1719,1.073647698858931,0.7845793019271494
1720,0.9681028950467755,0.8625612333998028
1721,0.7900219834834323,-0.1642299038981369
1722,0.5682510427110329,0.7514449461429342
1723,0.33694743591294085,-0.6762443773337868
1724,0.11940613556888949,0.2444848792543714
1725,-0.06768958749998127,0.588059788396903
1726,-0.21320338931590757,0.4376046920696499
1727,-0.3115458527448216,1.0163445910348017
1728,-0.36267448749609904,0.7552854249186289
1729,-0.3720937301227342,-0.18285907618825772
1730,-0.35085494402124306,0.7273298423146065
1731,-0.3123114124243347,0.48307975794723135
1732,-0.2652664111627727,-0.459267910886951
1733,-0.21778943697128977,-0.30795030217526653
1734,-0.17568018898835142,0.06025510610929086
1735,-0.14243800857679276,-0.9158592074879445
1736,-0.11926187932388908,1.1684324411733338
1737,-0.1050504270412987,0.789939370119049
1738,-0.0964030770912723,0.6479410746066171
1739,-0.09013298021400655,0.14352401749739857
1740,-0.08569288982876905,0.7895071401142029
1741,-0.08226641604265915,0.038334809206221884
1742,-0.0791971325101189,-0.5286263098087938
1743,-0.07598857643292581,0.43461642157241076
1744,-0.07230424856019854,0.6042613804460588
1745,-0.06796761318839184,-0.02067544573762574
1746,-0.06296209816130229,0.4469699270119895
1747,-0.057408731271775114,0.5853508358587929
1748,-0.05123485169868224,-0.5427990711887631
1749,-0.04433509324116254,-0.34713271845242966
1750,-0.036649270713712934,0.5539831646749191
1751,-0.02812853644423979,0.6037484466219072
1752,-0.018735380274071924,0.016524427809248638
1753,-0.008443629557945729,0.4159927883831561
1754,0.002761550835978111,0.18069265197418224
1755,0.014883658526132947,-0.3328493565717169
1756,0.02791488523290625,0.7744703475479787
1757,0.0418374619614305,0.41438131306683224
1758,0.05662416121734479,-0.15918532124819232
1759,0.07223655310647609,0.5317753903821337
1760,0.08864605671553098,0.4844114203133121
1761,0.10596020409682728,-0.7413214041459453
1762,0.12401730135959137,-0.1253593615855937
1763,0.14259241904648864,0.3572695958262815
1764,0.16146795491664206,-0.5435375654587943
1765,0.18043400774509685,1.1360228027454975
1766,0.19928839516679941,-0.1589975984371635
1767,0.2178366536766308,0.5772253003357875
1768,0.23589203862937236,-0.8030965435601891
1769,0.2532755242397404,0.06964175397162772
1770,0.2698158035823519,0.31255564789446755
1771,0.28534928859175773,-0.49259959108483115
1772,0.29972011006241134,0.24334098099481427
1773,0.31278011764869756,0.9626875970689499
1774,0.3243888798649067,0.24083298382439788
1775,0.3344136840852572,0.7794430990919965
1776,0.3427295365438762,-0.14888679084231798
1777,0.3492191623348163,1.1238099209937897
1778,0.35377300541204104,0.3370188882278756
1779,0.35628922858943696,0.4399076264504545
1780,0.35667371354080446,-0.6410580310324223
1781,0.3548400477608872,-0.5713430583373809
1782,0.3506208879970773,-0.33035249330886024
1783,0.3438345526475855,-0.08903125341350572
1784,0.3347311116439308,0.32404291403755636
1785,0.32357550510829247,0.4106527860932961
1786,0.31062152624246536,0.8348259162882719
1787,0.29611182132784036,0.02884753399444217
1788,0.2802778897254272,0.1608114348968419
1789,0.2633400838758288,-0.45731461005330304
1790,0.24550760929926957,-0.007910173914524206
1791,0.22697852459556453,-0.14052688906971267
1792,0.20793974144415223,0.5839947835070346
1793,0.18856702460406505,-0.9162135155596897
1794,0.16902499191394182,0.35153082845944517
1795,0.14946711429204154,-0.08489343921850577
1796,0.13003571573621173,-0.042222340437213096
1797,0.11086197332392476,-0.36335699176702185
1798,0.09206591721224212,-0.7650492962032365
1799,0.0737564306378486,1.0173220880346276
1800,0.05603124991701944,0.056278507974720275
1801,0.03897696444565283,0.44455981780052195
1802,0.02266901669923753,-0.4719205887930465
1803,0.007171702232884343,-0.7116706408406461
1804,-0.007461830318703441,0.003808805115492843
1805,-0.021189579241203054,0.14806020578006443
1806,-0.033980681770012525,-0.48138575634321445
1807,-0.04581410578065643,-0.14965149539776096
1808,-0.05667719441088397,0.3923720794935021
1809,-0.0665680870222145,-0.9208310883342417
1810,-0.07549130625246044,0.8594647822602602
1811,-0.0834854861139476,0.6742170457016429
1812,-0.09061923900279528,-0.08133144458215977
1813,-0.09695851853319602,-0.5763368852013773
1814,-0.10256606559148732,-0.31570964515587185
1815,-0.10750166418554927,0.004225900333446983
1816,-0.11182218769161524,0.18351756131614858
1817,-0.11558159885426271,0.9457736550952898
1818,-0.11883094978642145,0.9839541644841703
1819,-0.12161838196936642,-0.8373842052340826
1820,-0.12398912625272325,-0.299646825408899
1821,-0.12598550285446392,0.4517469622075703
1822,-0.12764692136091102,-0.4390188557233294
1823,-0.12900988072673353,-0.0031605410891346747
1824,-0.13010796927495008,-0.15153603027161386
1825,-0.13097186469692693,0.032045707576504746
1826,-0.13162933405237923,-0.4444008061749296
1827,-0.13210523376937025,-0.30128349993046183
1828,-0.1324215096443118,-0.6332523802840473
1829,-0.13259719684196378,0.6947310648440063
1830,-0.13264841989543474,0.698506070270417
1831,-0.13258839477906761,0.37128872962320936
1832,-0.13242852795049126,-0.2134903770045835
1833,-0.13218022449591804,-0.15447805731242464
1834,-0.13185245379698698,0.12205545237487096
1835,-0.13143969599507574,0.2504782179325766
1836,-0.13091332785595616,-0.46167810402532217
1837,-0.1302940092885987,-0.875348282519036
1838,-0.12960446480346452,-0.5685799439636003
1839,-0.12886494368421064,0.29928767748701396
1840,-0.12809321998768927,0.6707717105620898
1841,-0.12730459254394874,0.7674492285323935
1842,-0.12651188495623256,-0.004871616352350991
1843,-0.12572544560098062,0.03947842623480394
1844,-0.12495314762782722,0.5811780609319439
1845,-0.12420038895960336,0.22398076287746163
1846,-0.12347009229233505,-0.6322946623723789
1847,-0.12276270509524441,-0.12384894841907143
1848,-0.12207619961074857,-0.018594697800600066
1849,-0.1214060728544607,-0.8105842986315158
1850,-0.12074534661518947,-0.77619436287684
1851,-0.12008456745493941,-0.21105997030818655
1852,-0.11941180670891009,-0.2076179603488046
1853,-0.11871266048549722,0.030197338923580716
1854,-0.11797024966629197,-0.5444580686352984
1855,-0.11716521990608124,0.49919538089704213
1856,-0.1162757416345337,1.0282283432167052
1857,-0.11527751925871633,0.9545594302556416
1858,-0.11414381271307569,0.7262629660738036
1859,-0.11284541312097585,0.42335819876949643
1860,-0.11135063637897602,0.15243689966415047
1861,-0.10962532315683132,-0.510539520443812
1862,-0.10763283889749198,-0.26951004123664546
1863,-0.1053340710780837,-0.1508921027456638
1864,-0.10268957033468892,0.19462821501121474
1865,-0.09972139807984126,-0.10748751314981903
1866,-0.09624448643453078,0.09903368266670633
1867,-0.09200805513356179,-0.4306108715634287
1868,-0.08679988337490185,0.5426407653686012
1869,-0.08044630981968916,-0.47818134681458063
1870,-0.07281223259222322,-0.5953230077431245
1871,-0.06380110927997633,0.21382276935740963
1872,-0.05335495693358006,-0.7599033757790068
1873,-0.041454352066841206,0.9961976725649433
1874,-0.028118430656722815,0.17708191342104407
1875,-0.01340488814336612,-0.704539542150759
1876,0.0025900205699338763,0.7148453451919782
1877,0.019731481116701727,0.11908259340080066
1878,0.03784611966731029,-0.742760651422759
1879,0.056722002928950375,0.28107236351928505
1880,0.07614303906581506,0.5277471079832889
1881,0.09565649091739155,-0.3487405400955261
1882,0.11458530024504486,-0.3244124643981321
1883,0.13232213124479852,0.7145803634521032
1884,0.14833245801975922,0.5707216007127739
1885,0.16215390253064038,-0.21166145113201007
1886,0.1733962345907509,0.5251730306895309
1887,0.18174137186596917,0.5723753479551518
1888,0.18694337987476498,0.9230815341303967
1889,0.18882847198818298,0.04232766218590181
1890,0.18729500942985286,-0.3933298841691681
1891,0.18231350127598536,-0.3080992103296841
1892,0.17391453935765755,0.5295235168524843
1893,0.1622723189955332,-0.2569060463183907
1894,0.14793947031196092,-0.7906033845135452
1895,0.131485454282611,0.43468640730020786
1896,0.11344669987620558,0.8591914701511322
1897,0.09432660405454797,0.1050800413462287
1898,0.07459553177249044,0.4881769329473759
1899,0.054690815977968106,-0.501613173074078
1900,0.03501675761196369,0.5500453044690499
1901,0.015944625608543424,0.8964371422688563
1902,-0.0021873431051781327,0.12722079753151852
1903,-0.01907394360900443,0.15845017270561057
1904,-0.03444282418364648,1.0055495400163807
1905,-0.04802300384248404,-0.772008522493529
1906,-0.05980473897075806,-0.6065590091051107
1907,-0.06996159431945552,0.5385955418433395
1908,-0.07873587084252637,-0.11738622259170128
1909,-0.08643756684022022,-0.7643733798063798
1910,-0.09344385060876287,-0.1266507411665012
1911,-0.1001990600389912,0.012353121712005755
1912,-0.10721470261636602,0.12287028418600074
1913,-0.1150694618399135,0.5396314900281877
1914,-0.1244093361386489,-0.5108446704843608
1915,-0.13594763760484319,-0.4149891110757209
1916,-0.15046485409099827,0.10403640679520898
1917,-0.16880864304422197,0.17169398213670511
1918,-0.19189383150625464,0.2974451398571981
1919,-0.22070717429404302,0.3383194075572011
1920,-0.25314758522152514,-0.15049732104878508
1921,-0.27844086239317456,1.0438540124026547
1922,-0.28608110772131623,0.5957352110135253
1923,-0.2676611802949707,0.684748014980861
1924,-0.2168726963798495,-0.4672323963453378
1925,-0.129506029418316,0.38615344800265505
1926,-0.003450310029479155,-0.8588978392486623
1927,0.16130657399096235,0.03613810445215486
1928,0.3641128838558409,0.9829242672354173
1929,0.5920924769873989,-0.27682617148642297
1930,0.8025915604470936,0.8714581866839983
1931,0.9608464503339225,-0.44790590828303384
1932,1.043784008358922,0.2915666159973525
1933,1.0400213692386617,-0.15447536936517908
1934,0.9498661239972316,-0.7400211718472217
1935,0.7853164546187866,-0.2197274744062872
1936,0.5706158231810923,1.0303071087217737
1937,0.3394092292197051,0.46067792133758234
1938,0.11784162482836698,0.08850740144028205
1939,-0.07489123499038672,0.05570200227464803
1940,-0.2259704725281711,0.05900732355113642
1941,-0.3289540873710792,0.0602844395800612
1942,-0.3837769563994229,0.09765290619641592
1943,-0.3967508337879128,0.0734200765893773
1944,-0.379517034986395,0.0799877930939296
1945,-0.34162812045261,0.1406388688487118
1946,-0.29388247851252625,0.059722677447904715
1947,-0.24521370857956798,0.04213923114609168
1948,-0.20194548247613503,0.058014040696440936
1949,-0.16779154443352318,0.11331218504421348
1950,-0.14385571109199685,0.05378656425070119
1951,-0.12863187150072974,0.10541240811993453
1952,-0.11839578633879372,0.12215856718012616
1953,-0.11130339029371078,0.09400245048255239
1954,-0.10637508320162413,0.05361816324107222
1955,-0.10266086798345599,0.1084717214016584
1956,-0.09940184428001961,0.11279988637859058
1957,-0.09603002227107853,0.046430427376569036
1958,-0.09216682826357722,0.12123763333423739
1959,-0.08762389379107452,0.057585181790832635
1960,-0.0824039389215764,0.05357361923319886
1961,-0.076680120317968,0.0623657663797726
1962,-0.07037601688283868,0.07071875481218153
1963,-0.0633575294202371,0.051512689538167816
1964,-0.05555936573746099,0.04788403436678744
1965,-0.046927360881604575,0.13905638736404305
1966,-0.03741879119203809,0.09581537673941495
1967,-0.027002428315824892,0.12449187894317422
1968,-0.015658539207738423,0.08154499998955723
1969,-0.0033788861302434053,0.0917958109765107
1970,0.009833273346483661,0.11735024021425437
1971,0.023963186344576403,0.07187976512375797
1972,0.038984604678455305,0.10166727231707692
1973,0.054859784854852656,0.11274148485098598
1974,0.07154773056125568,0.08389210833121861
1975,0.08917076231943835,0.09530554961763975
1976,0.10760636543928861,0.11842486901947019
1977,0.12661881730564115,0.06089850134869143
1978,0.14598138813354306,0.07986496705421231
1979,0.16547634096828645,0.08061584739593643
1980,0.18489493168537532,0.047593643774874496
1981,0.20403740899055878,0.08320177980183113
1982,0.22271277846941187,0.09852406712165772
1983,0.24073621645438467,0.034893044705161705
1984,0.2579300331021054,0.07743304167440146
1985,0.27412549864859953,0.11596948154072494
1986,0.28916287616010666,0.04873535010022921
1987,0.3028914215331087,0.12378127956379353
1988,0.3151693834943037,0.10866476508135181
1989,0.3258640036006288,0.10604666867320063
1990,0.3348515162392403,0.07804789720658907
1991,0.3420171486275319,0.06401443711974897
1992,0.34725512081311855,0.03708657839863356
1993,0.3504686456738485,0.055846018927802915
1994,0.35156992891779587,0.07863415531967968
1995,0.3504801690832649,0.05972018591699503
1996,0.347126366715684,0.09159701497716671
1997,0.3413195549577571,0.10631113687665583
1998,0.33316809451616075,0.13289198495279184
1999,0.32292936100787745,0.042690121900309665
2000,0.3108505517854266,0.05998998731503112
2001,0.2971686859368481,0.03651233732581466
2002,0.2821106042857058,0.06896456961905384
2003,0.26589296939111223,0.08496390428076318
2004,0.248722265547688,0.0699507127354849
2005,0.23079479878558826,0.11905980270835703
2006,0.21229669687048783,0.0751022756152351
2007,0.19340403680486745,0.0917026189580307
2008,0.17428479673954753,0.11312553457565504
2009,0.15509846987698206,0.08906096282937735
2010,0.13599442041439164,0.10483393616788163
2011,0.11711183428455159,0.04617467782391053
2012,0.09857971915573895,0.03695831863351595
2013,0.08051690443176776,0.07555512657527445
2014,0.06303194466374605,0.12858770431341726
2015,0.04622259831338704,0.13611680116102928
2016,0.030176202231950854,0.12659363272246033
2017,0.014969914418749744,0.050236114639518756
2018,0.0006707146086183304,0.09179017270441661
2019,-0.012664595728062056,0.10084013907932995
2020,-0.02498939338540116,0.09606040050844454
2021,-0.036267233421973674,0.05740636505609857
2022,-0.04646938485852996,0.10731410149448016
2023,-0.05561831912662196,0.01788161144105093
2024,-0.06378606195047441,0.05605713270717813
2025,-0.07104318547624641,0.12439682769668359
2026,-0.07745756807523556,0.050972735502691685
2027,-0.08309439434386547,0.07230907963449451
2028,-0.08801615510370345,0.09833189929091364
2029,-0.0922826474014489,0.0958366877983414
2030,-0.09595097450893782,0.10006213196160366
2031,-0.09907554592313653,0.08413436540609981
2032,-0.10170802761811501,0.07226354387416932
2033,-0.10389623855332344,0.12346947299310623
2034,-0.10568414563174643,0.14133846991573373
2035,-0.10711297122508912,0.036673336668136526
2036,-0.10822124393019407,0.09689198153326097
2037,-0.10904479856903827,0.12279093332634032
2038,-0.10961677618873338,0.06938283376258267
2039,-0.10996762406152606,0.06643486369387534
2040,-0.11012509568479836,0.0649554357264224
2041,-0.11011425078106708,0.05519457843229665
2042,-0.10995745529798333,0.04783694461435083
2043,-0.10967438140833478,0.10338539366789384
2044,-0.10928200751004269,0.10763931000063659
2045,-0.10879461822616401,0.03751602530314961
2046,-0.10822380440488988,0.10696806024230052
2047,-0.10757846311954775,0.02826728877746544
2048,-0.10686479766859912,0.083265499585741
2049,-0.10608631757564063,0.04395111316582141
2050,-0.10524383858940375,0.09441197641714165
2051,-0.10433548268375496,0.05844782028234553
2052,-0.10335437241649076,0.05088817732384217
2053,-0.10227418886002956,0.07684941469321437
2054,-0.10110301635921548,0.06735522258090856
2055,-0.09985626725736145,0.07401740468309449
2056,-0.09854666072747176,0.12172465177961792
2057,-0.09718433202346803,0.07841038967334607
2058,-0.09578054999496491,0.013980578086399796
2059,-0.0943486310468778,0.12889607192291747
2060,-0.09289949308931836,0.07738749764047578
2061,-0.09144136086208686,0.053635218505321366
2062,-0.08997976593467392,0.12435766679792322
2063,-0.08851754670625903,0.09307331849693486
2064,-0.08705482562690561,0.05136914435393046
2065,-0.08558854714247661,0.1313841916874127
2066,-0.08411249845977316,0.03553203646455492
2067,-0.08261775499200036,0.09567554691177435
2068,-0.08109269898205444,0.1222123857597357
2069,-0.0795230195025193,0.09337866139518684
2070,-0.07789171245566967,0.10822363865938574
2071,-0.07617908057346874,0.08911745590275451
2072,-0.07436273341757134,0.13015567570286274
2073,-0.07241758737931953,0.04849329304323044
2074,-0.07031586567974629,0.09745168070772328
2075,-0.06802709836957307,0.1203497391627314
2076,-0.06551812232921318,0.055029478980874645
2077,-0.06276794703815747,0.07610610647686979
2078,-0.05982510481070398,0.10651518160015461
2079,-0.05648638084246507,0.06464084546167892
2080,-0.052519883173922276,0.1305134834284513
2081,-0.047726213524701376,0.05333073076700918
2082,-0.04193840569583568,0.04301742442615372
2083,-0.03501840724417854,0.06896299329865507
2084,-0.026855176183468762,0.05030712330930972
2085,-0.01736970012296881,0.10318857295318737
2086,-0.006515460351091462,0.06777316910021088
2087,0.005721568164607945,0.1287865799693557
2088,0.019322916777409247,0.03401314445799589
2089,0.034237623161460395,0.0784118794091931
2090,0.05038223131175657,0.057371344837080486
2091,0.06764079154415209,0.08944306688232617
2092,0.08586486049533022,0.09433180069606588
2093,0.10490447434913014,0.051544953536885145
2094,0.12450748379809004,0.07525097146665179
2095,0.14398420865079728,0.09478079376837888
2096,0.16267120725931733,0.1069762360023301
2097,0.1799811362802853,0.08054999160831872
2098,0.19540275067487076,0.06737337457177496
2099,0.20850090370879126,0.13559387365839912
2100,0.21891654695228963,0.10437153424387177
2101,0.22636673028017099,0.1180373360527722
2102,0.23064460187177632,0.05349440542664767
2103,0.23161940821098984,0.060267232748434325
2104,0.22923649408623667,0.05972881821921881
2105,0.22351730259048883,0.07354922227087493
2106,0.21455937512125897,0.11228450240802434
2107,0.2025045186518067,0.08200748969394105
2108,0.1877587718743444,0.05557653846321097
2109,0.17098006588183595,0.05589997994530087
2110,0.15277745026342396,0.10200710904858365
2111,0.13370529017665125,0.05057064223682641
2112,0.1142632663474965,0.06862593144188735
2113,0.09489637507032263,0.14372438724159414
2114,0.07599492779513368,0.09880839568252103
2115,0.057894448920980696,0.12484768975888572
2116,0.04087554155071557,0.0618672762004094
2117,0.025164091043813265,0.09234035780903654
2118,0.010931298328166032,0.03205826568903373
2119,-0.0017063200999287713,0.11317118851760134
2120,-0.012687535923697498,0.07914682794306771
2121,-0.022187851505618993,0.023092173819053416
2122,-0.030229554577645586,0.11323071142905282
2123,-0.036810421113455,0.04138138534436698
2124,-0.04217072916409684,0.0528219903251314
2125,-0.04679325885801035,0.08481020498991354
2126,-0.05140329240101146,0.08119707311101494
2127,-0.056968614076299974,0.07144715897073177
2128,-0.06469951024444806,0.07986245574719238
2129,-0.07604720093205763,0.09948292137080607
2130,-0.0924566190048849,0.12006550826474685
2131,-0.11473158357462573,0.06619158398300126
2132,-0.1420186704305161,0.10786268336356233
2133,-0.17154987461054974,0.12554926846390063
2134,-0.19864247798307802,0.11209479992954344
2135,-0.21669924447120836,0.1347232216435942
2136,-0.21720845328884184,0.10110722778868925
2137,-0.19200696047936064,0.06794935668152927
2138,-0.1335812709230961,0.06693063738102394
2139,-0.03264296619745532,0.07118000582173889
2140,0.1128707979189434,0.039028116994728794
2141,0.29749404020053577,0.06751903729813354
2142,0.5082319539746527,0.04651668011833815
2143,0.7245609071216518,0.09052910795406938
2144,0.9186343914883599,0.10957606830148328
2145,1.0586540341672568,0.0846518696409675
2146,1.1185135679568616,0.07885379697143044
2147,1.0864819932214065,0.1025516302094524
2148,0.9659338125137804,0.048309035022928506
2149,0.7753490305754368,0.09376127073768792
2150,0.5480255912018615,0.09321993591253122
2151,0.31792031277598776,0.12852292188551795
2152,0.10787061136551535,0.11100565226183515
2153,-0.06559301683426033,0.04597161756889623
2154,-0.19291027284406662,0.0753998282438226
2155,-0.27149105490078107,0.10067145803262062
2156,-0.30568778717521117,0.0795592227011492
2157,-0.30227230246777587,0.12053420868262994
2158,-0.2723841007273433,0.04680565726357448
2159,-0.22839723058632674,0.08064522285825843
2160,-0.18008377683889798,0.03267391972446304
2161,-0.13461408449641737,0.030908688512677772
2162,-0.09655675878750994,0.03394198453801827
2163,-0.06787866515803939,0.10889549825376106
2164,-0.04788208909629689,0.08069477113626053
2165,-0.033631017950463644,0.08977932005170913
2166,-0.023543136000463573,0.06176875214998608
2167,-0.016528520498109968,0.0985056416997901
2168,-0.01162234109000524,0.1176710258747423
2169,-0.007984859533266043,0.12537923254376687
2170,-0.004901429695536583,0.10064004142708671
2171,-0.0017824975549829121,0.11356540979815588
2172,0.001836398799701035,0.046933925151080746
2173,0.006294629169301668,0.04516709837292205
2174,0.01180647124408069,0.04466790306841692
2175,0.018461110603778592,0.05650469588933755
2176,0.026222640717604204,0.027827107034439507
2177,0.03493006294425082,0.1104676784080681
2178,0.04429728653188504,0.05885971503493162
2179,0.05415477773955388,0.0893753056849155
2180,0.06487416919861702,0.12061652710023782
2181,0.07651936221286287,0.02498697427392963
2182,0.08911689166865527,0.03813916617625241
2183,0.10267510539248624,0.0844668582515281
2184,0.11718323217642407,0.05890604617910389
2185,0.13261234547627448,0.11378549569908886
2186,0.14891566402038744,0.13087102555561392
2187,0.16602855180963205,0.04068626836078661
2188,0.18386851811741106,0.036056426855156164
2189,0.20233521748962852,0.08285845481746582
2190,0.22131044974473738,0.04541808518658047
2191,0.24065815997370815,0.08680270518011031
2192,0.2602244385400455,0.12280741428472754
2193,0.2798476831984249,0.06295544244384968
2194,0.29946302017494,0.07642991150498749
2195,0.318833524522563,0.05953126576068704
2196,0.33768067270144675,0.09557392698244703
2197,0.3557473695589755,0.05646683904565463
2198,0.37279794832981517,0.032731001279171563
2199,0.3886181706358801,0.06838324740318019
2200,0.4030152264863461,0.06873797768309833
2201,0.4158177342776276,0.09179259444082574
2202,0.42687574079341445,0.023400700798538662
2203,0.4360607212046469,0.07596805250680097
2204,0.44326557906952324,0.09298152872805353
2205,0.44840464633349025,0.048325009463065394
2206,0.45141368332926074,0.06388940772412188
2207,0.4522498787768001,0.0897650978766325
2208,0.45089200644612343,0.08308569367595388
2209,0.44734102709111556,0.10349712292984746
2210,0.4416195591520659,0.09447532027177749
2211,0.4337559390663146,0.08722379727129016
2212,0.4236688081446695,0.0826276191097443
2213,0.41155509379140287,0.065672634474595
2214,0.3976807092065088,0.1229015544252746
2215,0.3822996926140122,0.08022179603595368
2216,0.365654821290238,0.04522868778006359
2217,0.3479775625878103,0.05045900755135694
2218,0.32948749906907804,0.04223889576199136
2219,0.3103923060699899,0.07617511450475223
2220,0.29088775170007863,0.03634381011085092
2221,0.27115769684249547,0.09345211852644156
2222,0.25137409515395875,0.06588623528306978
2223,0.2316969930647882,0.1367030967578638
2224,0.21227452977888747,0.09877270203134235
2225,0.19324293727377861,0.0739961998857988
2226,0.17472654030055068,0.09420842383014633
2227,0.15683775638389397,0.11445949525294648
2228,0.13967709582208476,0.11050951021473679
2229,0.12333316168701318,0.05619561142309837
2230,0.10788264982414048,0.10178009263901422
2231,0.09339034885252777,0.07643866600715996
2232,0.07990914016482334,0.0366658744631235
2233,0.06748011818385836,0.10788291324881709
2234,0.05615333517451261,0.04446573336681642
2235,0.045936226402138736,0.11907272152517222
2236,0.03675761908062791,0.09438775735458475
2237,0.028547565831454243,0.04619589847401121
2238,0.02123876144167841,0.10420690313684436
2239,0.014766542863963674,0.12347670788317658
2240,0.009068889216569079,0.09179624672908737
2241,0.0040864217833586364,0.05938268173192855
2242,-0.00023759598621241355,0.10170106761260583
2243,-0.003957258477088195,0.11540273573741466
2244,-0.007124017908615718,0.07457433127582656
2245,-0.009786684334540278,0.10249326979257319
2246,-0.011991425643012955,0.02815246647127399
2247,-0.01378176755658468,0.10374300309027784
2248,-0.015198593632209241,0.10236374588976437
2249,-0.016280145261240577,0.10006306395487623
2250,-0.017062021669435767,0.026724068490003142
2251,-0.01757717991695352,0.02536785920065373
2252,-0.01785593489835411,0.10683095432871248
2253,-0.01792595934259942,0.10644193086705812
2254,-0.017812283813053727,0.0955890530974224
2255,-0.017537296707482265,0.0939299366167242
2256,-0.017120744258052448,0.14638666377758663
2257,-0.01657973053133432,0.032577167782951715
2258,-0.015929119619334964,0.03494497077813312
2259,-0.015184346959569193,0.04212823324941846
2260,-0.014359746183111186,0.052828017402280186
2261,-0.013467018442515962,0.03520900214806672
2262,-0.012515222724740017,0.07506976388448998
2263,-0.01151077585114202,0.041920288011188474
2264,-0.010457452477481375,0.05759989063145399
2265,-0.009355826992539628,0.073408244552509
2266,-0.00820343786895232,0.05215191935886823
2267,-0.007012679954921578,0.1248723306529785
2268,-0.005797578831314493,0.03543267623715592
2269,-0.004570382602191512,0.0844554730610652
2270,-0.0033415618948038233,0.12413466881634748
2271,-0.0021198098595948006,0.041134755698111154
2272,-0.0009120421701986352,0.08895655323643305
2273,0.00027660297655693984,0.026737077449522507
2274,0.0014427648606538945,0.11033255125967462
2275,0.002584860238881952,0.09782933504724284
2276,0.0037030833448393813,0.06454442296407212
2277,0.0047994058889320864,0.09403820914809377
2278,0.005877577058374683,0.0476205236021699
2279,0.006943123517189748,0.0317140891181127
2280,0.008003349406208757,0.03585415098695578
2281,0.009067336343070252,0.13713322339220388
2282,0.010145943422221849,0.05445613935160136
2283,0.011252215667864503,0.04726969042168719
2284,0.012405257057372885,0.04548231539310553
2285,0.013628504667993582,0.13152464120687934
2286,0.014947207257728249,0.07233647530527877
2287,0.016350724254662066,0.031693557707376446
2288,0.017902421291552846,0.09705852653605808
2289,0.0197505944458726,0.1185936560788854
2290,0.022036833883754083,0.027302976469741613
2291,0.024895905157912117,0.11877787635515688
2292,0.02845574920764622,0.06059639510039705
2293,0.03283748235883325,0.099422696656024
2294,0.0381553963239373,0.05855228117537511
2295,0.04451695820200424,0.031236592247505496
2296,0.05202281047866565,0.03365541345412431
2297,0.060766771026125994,0.0868147943114645
2298,0.07083583310318141,0.04694911067499506
2299,0.08231016535520855,0.06381559681243817
2300,0.09526311181417225,0.03973097896835159
2301,0.1097611918986026,0.07887113020465901
2302,0.12594618224355,0.07160603319640593
2303,0.1437786973681056,0.05277441772856867
2304,0.16272494614077876,0.10684952309230597
2305,0.18225777114403663,0.03253050660222481
2306,0.20187589041812348,0.043230043687161476
2307,0.22110389746102552,0.12091430713218403
2308,0.23949206416029015,0.0528856236147716
2309,0.2566137615861157,0.09315937378725993
2310,0.2720661839859804,0.07558108062186468
2311,0.28547235295278567,0.06360440130750682
2312,0.2964811655371759,0.07184306578563743
2313,0.30476739424754945,0.1118099840480696
2314,0.31003168705004536,0.11777701867293174
2315,0.31200056736856513,0.09380153410034645
2316,0.31042645916909806,0.08883592103314292
2317,0.3050532781818183,0.12261362301994266
2318,0.29583844529775816,0.10291651552889125
2319,0.2834554595336123,0.09784042848362373
2320,0.26859857325615655,0.07739335198378255
2321,0.25190663868903473,0.05262622273173456
2322,0.23396310791278982,0.054204570330268764
2323,0.21529603286481838,0.049300763270499336
2324,0.19637806533940036,0.10627447380126924
2325,0.17762645698768323,0.05094197638862766
2326,0.159403059317716,0.09634700873861679
2327,0.14201432369439806,0.04927745732944562
2328,0.1257113013395134,0.056062832388109066
2329,0.11068964333171565,0.06620421988627138
2330,0.09708960060655443,0.11259048537105423
2331,0.08499602395643482,0.07767157985312902
2332,0.074438364030645,0.08212211691725892
2333,0.06539069584312919,0.021066123850860197
2334,0.057772174838536985,0.04234056622551687
2335,0.05153080880393233,0.11451015909162703
2336,0.047860788172533725,0.10323292048066791
2337,0.045107361553018026,0.05278135999631446
2338,0.04097598487579322,0.08705466556317254
2339,0.033767384469627605,0.06304901117411774
2340,0.022377557061653286,0.09631466843138017
2341,0.0062977697773570936,0.053519786227026064
2342,-0.01438543985938832,0.09580444736242773
2343,-0.03899026392636792,0.08075341734870362
2344,-0.06623962410299786,0.09069105273967173
2345,-0.09426117167034337,0.07735793635617134
2346,-0.12125417914959025,0.0310594167793546
2347,-0.14094108116738202,0.04891775217569741
2348,-0.13771120729826042,0.06465613221447
2349,-0.09990712006808544,0.0569843726299924
2350,-0.020864467966781642,0.06645001645554985
2351,0.10108801455175713,0.021821809148222977
2352,0.2626285070696218,0.07104971934179038
2353,0.45544210320498674,0.11385319113042124
2354,0.6662208106117504,0.11139120185387583
2355,0.8764337780951159,0.051194116146940236
2356,1.0548163712110565,0.0761794421333446
2357,1.1660171611883634,0.03139283225389935
2358,1.189197713019784,0.11322550139698073
2359,1.119094210238975,0.12224448829618473
2360,0.9660175819377188,0.021604961829261644
2361,0.7558524211197557,0.13250331878326205
2362,0.5243449099767044,0.07048039786169066
2363,0.29841337132114515,0.031242078639182005
2364,0.09903484140538063,0.02635430444321782
2365,-0.05975120327189218,0.022038018668695977
2366,-0.17088720587230355,0.08204074265463819
2367,-0.2342973120571901,0.111094326917263
2368,-0.25610637563112665,0.09276455028630246
2369,-0.24326554597672967,0.12240474637270889
2370,-0.20831180232391025,0.0758978651429069
2371,-0.16265050409742132,0.10972760416070491
2372,-0.11514112440130204,0.11757454561214138
2373,-0.07209725001886091,0.05517205510778521
2374,-0.03728658141274982,0.06458654987742948
2375,-0.011930932724847102,0.04750574918694202
2376,0.005283742311484095,0.06527533030276075
2377,0.01697753683308593,0.10464449251743381
2378,0.024751358484431787,0.11167995450006973
2379,0.02986785669048586,0.07633552874294199
2380,0.03340023209224318,0.078929407102767
2381,0.036232236546737254,0.08309629334498157
2382,0.03905817312703503,0.0333315613904339
2383,0.04238285942306082,0.10563247148933375
2384,0.046519997494738605,0.15449366686173718
2385,0.051591525330880815,0.14238183138429483
2386,0.057529761320877185,0.10252710161830861
2387,0.0640775750701615,0.1094926087279177
2388,0.07108105369173058,0.06383223980714114
2389,0.07884642249505217,0.11286882547481822
2390,0.08743767409933716,0.10585709263429952
2391,0.09689985460260442,0.1122898988856856
2392,0.10726551094987102,0.10272493261249027
2393,0.11855469093316122,0.1039135212617442
2394,0.13077494319148644,0.0671557539828447
2395,0.14392131721087417,0.09138465730807732
2396,0.15797636332434933,0.05697305180563863
2397,0.17291013271194566,0.06194763082449002
2398,0.18868017740067852,0.03651317323179595
2399,0.2052316720395509,0.061432015080312985
2400,0.22261658487949876,0.02488658873274852
2401,0.24076325119981284,0.05446303347670348
2402,0.25945063731389306,0.08890787828053706
2403,0.2784640094705531,0.11532234147343912
2404,0.29759493385399005,0.09099757459424757
2405,0.3166412765837998,0.08480455978263345
2406,0.3354072037149435,0.14024919599061142
2407,0.3537031812377982,0.10054282004129687
2408,0.37134599804074553,0.07982089651009168
2409,0.38816060411555514,0.06874784589856985
2410,0.4039814530097779,0.03501190196535262
2411,0.41864961474071044,0.08115227942633037
2412,0.4320124592610326,0.040984560886304436
2413,0.44392365645882065,0.04431981573796548
2414,0.4542431761575243,0.08699910079047023
2415,0.46283728811600144,0.11267283385504771
2416,0.469578560971918,0.08740554206811302
2417,0.4743456763250853,0.0648152548554506
2418,0.4770232154108577,0.10759921668962161
2419,0.4775020077573111,0.027884141997720678
2420,0.4756538126679405,0.1025735751013756
2421,0.47125456840417146,0.07747643757979314
2422,0.4644628755641255,0.028951476915654153
2423,0.4555086843454307,0.04461848606887095
2424,0.44461518187276405,0.035304604059074554
2425,0.4319987921978436,0.12466874024006419
2426,0.41786917629945114,0.06078466876346817
2427,0.4024292320833995,0.08054404858842518
2428,0.3858750943825536,0.11917916327425598
2429,0.36839613495681733,0.06528770635020183
2430,0.35017496249316554,0.05840102067110399
2431,0.3313874226055966,0.05640863494569645
2432,0.31220259783516363,0.09457108743598022
2433,0.2927827986576304,0.11378092348276121
2434,0.2732819676570548,0.08079768972711356
2435,0.25384384162951124,0.0788652728096586
2436,0.23460494911751856,0.04699294733890699
2437,0.21569505559065316,0.04016040010032208
2438,0.19723716344552894,0.1108724980562887
2439,0.17934751200583188,0.0865133098345749
2440,0.1621355775222704,0.09946375119681758
2441,0.14570407317260783,0.10693469488201957
2442,0.13014894906164773,0.040846237843187784
2443,0.11555939222126259,0.12246381180069132
2444,0.10201782661034897,0.1113336220555058
2445,0.08959991241241526,0.0856658996545048
2446,0.07833446140595543,0.12887156603865002
2447,0.06815667754266763,0.03725770291048544
2448,0.058997550282819514,0.07078407512073641
2449,0.05079002703722293,0.09262025335592916
2450,0.043469013167226594,0.06831745657216183
2451,0.036971371984727885,0.12591488966394668
2452,0.031235924752152852,0.07546524037943028
2453,0.0262034506824708,0.09290009229236355
2454,0.02181668693918816,0.050762459941014026
2455,0.018020328636356615,0.05182690742082305
2456,0.014761028838560685,0.08505700101886582
2457,0.011987398560926253,0.1076983245522674
2458,0.009650008590683327,0.04606655158156443
2459,0.007702489206626334,0.08899605186401921
2460,0.006103395660721223,0.04807542730761166
2461,0.0048137356529753626,0.04216027113134401
2462,0.0037964748339351373,0.03448078084301676
2463,0.0030165368046874714,0.11325200538345453
2464,0.0024408031168570883,0.035745815354299965
2465,0.0020381132726083576,0.09751690761074613
2466,0.0017792647246449777,0.034183670029837576
2467,0.0016370805540804351,0.11607674541006055
2468,0.0015867239768506281,0.09550073138273191
2469,0.0016054501824287189,0.13919664202409707
2470,0.0016724724553955042,0.0705368035625846
2471,0.0017734034842233582,0.08100101603842921
2472,0.0019132503795667478,0.031625851569520344
2473,0.0020882409349808765,0.11362225620212907
2474,0.002293751265043593,0.12689770246127843
2475,0.002525785441235234,0.0777111951598822
2476,0.0027809754919400696,0.1115280391038165
2477,0.0030565814024455084,0.09089324897408128
2478,0.003350491114942216,0.03534170680681322
2479,0.0036612205285239366,0.026027077213219743
2480,0.003987913499188202,0.11498299828469145
2481,0.0043303418398355185,0.11422009056371768
2482,0.004688905320269898,0.09092292087457204
2483,0.005064631558521519,0.056449655898949326
2484,0.005458347270745435,0.1166821265541945
2485,0.005868682049360903,0.10553842819016776
2486,0.006294292081804655,0.12478702297747911
2487,0.0067344615124162125,0.08431566538525231
2488,0.007189102442439005,0.15019679594869012
2489,0.0076587549300196605,0.05020104956418564
2490,0.00814458699020824,0.05477418616664358
2491,0.008648394594957332,0.10970281550012763
2492,0.009172601673123532,0.12579059229860393
2493,0.009720260110466894,0.09023292724275858
2494,0.01029504701162666,0.10558540971216214
2495,0.010898408127865527,0.10739084720448977
2496,0.011545030891298576,0.09489119095808847
2497,0.012264789448659996,0.12054326145052506
2498,0.01309629586188045,0.059007880822566756
2499,0.014086900108085157,0.07628054289498981
2500,0.015292690079595325,0.10442054585182002
2501,0.01677849158392815,0.029113880875880398
2502,0.018617868343796702,0.055008833479074766
2503,0.020893121997107373,0.06982180232795032
2504,0.023695292096964447,0.06621447450363423
2505,0.02712415611166692,0.024597276489587233
2506,0.03128822942471152,0.09833632574339086
2507,0.036304765334784814,0.04963051816665265
2508,0.04229975505577419,0.09513248302699785
2509,0.0494084390162564,0.10946507747540803
2510,0.05777701176330702,0.11827533140897006
2511,0.06756100607638041,0.05628870079451609
2512,0.07901308427445916,0.10633697823702529
2513,0.0923386241785524,0.07096450198929559
2514,0.10726617735285436,0.11028977169452425
2515,0.1234917097324512,0.044642339928637996
2516,0.14070175326181178,0.1137214393512696
2517,0.15857339309810262,0.09194518185381342
2518,0.17677405213026276,0.07965018291529317
2519,0.19496152257138613,0.029888195712816857
2520,0.21278415620976138,0.10569491160964786
2521,0.22988087084303044,0.0979339345401544
2522,0.24588115027820437,0.14014917847289307
2523,0.26040504433163464,0.08059522177011243
2524,0.27306316882905696,0.08374901347253576
2525,0.2834567056055614,0.10112832130461952
2526,0.2911774025056032,0.10587488041375293
2527,0.2958075733829894,0.06642344856404986
2528,0.2969200981009002,0.10933700977799307
2529,0.2940785937830124,0.056457428566965985
2530,0.28718926735387795,0.11181066969943596
2531,0.2768225921500397,0.03471602831755163
2532,0.2635847609624425,0.05938737963193119
2533,0.2480452398225174,0.08597367664164945
2534,0.23073698954245858,0.13329543167584926
2535,0.21215746843055555,0.1372331920377381
2536,0.19276782859790834,0.10804136051791703
2537,0.1729924957774975,0.039269877575854976
2538,0.1532191689427804,0.08774808551891644
2539,0.13379882030772464,0.12004074418678444
2540,0.11504569532675651,0.07240915118085735
2541,0.09723731269479491,0.04066136613103995
2542,0.08061446434723697,0.044275601170949745
2543,0.06538121545998554,0.041679779750442625
2544,0.05170490444940634,0.06526184691966659
2545,0.039716142972356594,0.04201793824914807
2546,0.02939928895339901,0.07044072693282008
2547,0.02048261247094525,0.10999776951760538
2548,0.012973030316247067,0.08407857619763665
2549,0.006670620088452744,0.0895445038615707
2550,0.0011274599681922494,0.10489987576343056
2551,-0.004352371282412839,0.05673906387570852
2552,-0.010712794319763996,0.09273874326742369
2553,-0.01914572921877556,0.04641049187842072
2554,-0.03109109547288403,0.060936726527712204
2555,-0.048207680967627044,0.04994182365474473
2556,-0.07137053734896563,0.07187877759328165
2557,-0.09947726886833604,0.09784054254480967
2558,-0.1295905694392069,0.08426703003088622
2559,-0.15694223599135543,0.10411262161937633
2560,-0.17493816580222707,0.11646694607398365
2561,-0.17515505516279692,0.10476313017733403
2562,-0.1491874328733651,0.038621317076715664
2563,-0.08918378106579548,0.10573426343366443
2564,0.013219753896854945,0.0998183224182088
2565,0.15950343930290597,0.13200208642582573
2566,0.3440294953683462,0.071820991154843
2567,0.5540420957806113,0.11261743019908219
2568,0.7697224303996013,0.08242866619857095
2569,0.9641263907046861,0.043835637506140744
2570,1.1015262536783166,0.05972701335629055
2571,1.1567801955231778,0.06430358885725876
2572,1.120096069659163,0.0697677442347049
2573,0.9970314067235276,0.10477983300694073
2574,0.8083846234790066,0.10826807596690527
2575,0.5831716179638132,0.11410185494022101
2576,0.351088643306513,0.12455027409428669
2577,0.13664409989228374,0.11824748496542152
2578,-0.04315828202225142,0.08355811402203177
2579,-0.17881944230917124,0.07521264729566349
2580,-0.2681225717058646,0.10008008897655728
2581,-0.31037593008823494,0.03919783832712211
2582,-0.31490233933417106,0.04105597748654149
2583,-0.293607918867182,0.052507638349806186
2584,-0.2566554906292391,0.11461343950978077
2585,-0.2124585661321969,0.11558362339358143
2586,-0.16768444671918029,0.012313986500517177
2587,-0.12725783100107704,0.069533404504338
2588,-0.0943608504581815,0.08926468655616546
2589,-0.07043306944008537,0.05091151458376879
2590,-0.0547261788937879,0.12595076823380288
2591,-0.04443250358201031,0.027305182647123682
2592,-0.037934071960400474,0.0811979199379134
2593,-0.03391521013493393,0.057729050525626394
2594,-0.03128140462888642,0.0916863341148479
2595,-0.0291593023828281,0.11545310498996655
2596,-0.026896710754627077,0.061709868340093225
2597,-0.024062597519443972,0.07576797369348424
2598,-0.02044709086973521,0.06401640995278675
2599,-0.016061479415249883,0.10541853120160415
2600,-0.011138212183039571,0.07707524675114749
2601,-0.005839661550772235,0.10377603101825286
2602,0.00013631601743444065,0.08946648939830279
2603,0.0068638713147589955,0.08778522408669055
2604,0.014400138697545469,0.08165387922811437
2605,0.022791832012119286,0.04318421574552392
2606,0.03207524459477414,0.105275339878593
2607,0.042276249271780975,0.0688537868499239
2608,0.053410298359367885,0.1261248192934502
2609,0.06548215779253048,0.07811390768648883
2610,0.0784829138483652,0.09825750428641952
2611,0.0923910467931434,0.10272332048836874
2612,0.10717457604944038,0.06956298554962949
2613,0.12280091774623338,0.07392000553849451
2614,0.13936198513937978,0.09662942560000305
2615,0.15673723554253446,0.05734045019826973
2616,0.17472750042444657,0.11379921344207548
2617,0.19313835123612955,0.09668559382789635
2618,0.21178008165995815,0.0341248532437984
2619,0.2304676291531362,0.10711679125640065
2620,0.24902063871323368,0.1061892683313644
2621,0.2672634952951877,0.12234546465031074
2622,0.285025323836168,0.0444329053231321
2623,0.3021399892555932,0.10483687663142241
2624,0.31844609645509975,0.061134386257202654
2625,0.3337869903185887,0.053946975944244586
2626,0.34801075571219425,0.10248431237747503
2627,0.360970217484297,0.11397884912215193
2628,0.37252294046550166,0.07377004849900007
2629,0.3825312294686718,0.10977042534332637
2630,0.39086212928890623,0.047911642820701775
2631,0.39738742470354654,0.025897941286760467
2632,0.401983640472168,0.06484186565962574
2633,0.40453204133659565,0.06259763882857627
2634,0.40491859045657935,0.04057606747668026
2635,0.40298097491334617,0.05508151956351396
2636,0.39858375534264323,0.09263476235671336
2637,0.39191490494432313,0.05394662569049376
2638,0.3831772797094151,0.07402890079750783
2639,0.37256852003968316,0.1032146826881755
2640,0.3602810507476445,0.042778855310069155
2641,0.3465020810565419,0.09037813249734065
2642,0.33141360460036096,0.10889976984082952
2643,0.31519239942381877,0.04539164907090824
2644,0.29801002798239407,0.08957363387474729
2645,0.28003283714228244,0.0591024100658795
2646,0.2614219581804259,0.07985955344201517
2647,0.24233330678449636,0.11081302307092257
2648,0.2229175830529307,0.1032540283102381
2649,0.20332027149487975,0.07398117603769043
2650,0.18368164103024084,0.08212715566186851
2651,0.1641367449896424,0.07950391631081931
2652,0.1448154211144776,0.09661051785186238
2653,0.12584229155685253,0.06713777966212564
2654,0.10733676287962096,0.037471335922971145
2655,0.08941302605636804,0.1110402017807241
2656,0.07218005647144148,0.07260396263841662
2657,0.055741613919903864,0.06802375171515469
2658,0.040196242607565276,0.10325544092314652
2659,0.025637367431644197,0.02018845209042453
2660,0.01215413881257504,0.01450889929461238
2661,-0.0002372229433248059,0.10453319082246332
2662,-0.011595067450530405,0.11307518601115832
2663,-0.021974970727464068,0.10074886720464798
2664,-0.03143114866200162,0.07155594034261696
2665,-0.04001645701149998,0.11195958479141956
2666,-0.0477823914027789,0.13090684018684043
2667,-0.0547790873321277,0.11283566850483256
2668,-0.06105531649134581,0.12103220706661592
2669,-0.06665842848543889,0.09369032339876761
2670,-0.07163436125027582,0.09575112437075568
2671,-0.0760276910229414,0.05312634911553152
2672,-0.07988163390998197,0.11374041061936367
