,ecg,emg
0,1.0785874835896692,0.11435257200514465
1,0.8010794683078573,0.09428979058858306
2,0.24889277443345756,0.010085966907772357
3,-0.18951149621518726,0.05804931722219507
4,-0.36063633561010616,0.11649669279232346
5,-0.31255899229575573,0.04426806112355487
6,-0.19465703099018297,0.07144131504790034
7,-0.10957036362953773,0.02136058815146407
8,-0.07631409499355678,0.09162448499479926
9,-0.061853092272469594,0.05964788004251953
10,-0.05168788240823876,0.054897902776983115
11,-0.03926520692515138,0.08146335152016669
12,-0.02349052949930213,0.053461176253248394
13,-0.0036804660439554247,0.12838165622853906
14,0.021052780657759368,0.12250496445364699
15,0.05111947120397804,0.061050879826652714
16,0.08651750633388133,0.055574383607996033
17,0.12692949040290927,0.08691236239293884
18,0.17205980492079023,0.06425396966179987
19,0.21915969176436573,0.06712014162118324
20,0.2651873076308169,0.04436515152309479
21,0.307380914461841,0.05305920010034589
22,0.343244644343138,0.11000375917350108
23,0.3705610073283991,0.06286542362755287
24,0.3873963223993148,0.05182672286871454
25,0.3921007189094948,0.09533284683364207
26,0.38309843498421364,0.12430170205999781
27,0.3596974576500572,0.08362375170725536
28,0.3253403127439511,0.017530077644642827
29,0.28358782821802847,0.11083282714774775
30,0.23758637936179425,0.062369491320625234
31,0.19006605638031945,0.08717128888607685
32,0.14333287426438104,0.039869741366896805
33,0.09927524771344473,0.1212794417960143
34,0.059367136972050864,0.08985427222281907
35,0.02466804962211142,0.11760196869243694
36,-0.004176959417089652,0.052657158285389014
37,-0.02693464393512084,0.07146065718365069
38,-0.04385449515668674,0.11163553440539521
39,-0.055856955694103635,0.013220782053370782
40,-0.06389512217586295,0.10020680062687097
41,-0.06881509378960246,0.13476847434099382
42,-0.07135763270525385,0.04777846338950502
43,-0.07215615647469806,0.06873273291445493
44,-0.07173647547078445,0.04194354237668128
45,-0.07051680567593809,0.04385451235140651
46,-0.06880776868215946,0.10042800616205985
47,-0.06681239169102454,0.13121924319601716
48,-0.06454091734740706,0.037875369809480815
49,-0.06203796149921968,0.07735472609571194
50,-0.05956351393974646,0.11121568347914537
51,-0.057290699861788384,0.04602820968887464
52,-0.055284119750465724,0.06339209803128783
53,-0.053512222024429124,0.06095988230725222
54,-0.051855180525227716,0.059414534722543454
55,-0.0501049123508812,0.08080440920332196
56,-0.04796507785587965,0.10253503250764717
57,-0.04505108065118387,0.11274759812443463
58,-0.04089006760422517,0.0514431067027962
59,-0.03493735791805061,0.0990811887404225
60,-0.026423035772637823,0.03818082053115018
61,-0.012500520898990525,0.1163463864025022
62,0.009155529615456365,0.06122403444253287
63,0.039565181255542925,0.08740403423570309
64,0.07845990033865217,0.09091677217536351
65,0.12428268669856961,0.0672814541419442
66,0.1742989611577845,0.08958904832535791
67,0.2203339326521977,0.061032778540958565
68,0.2537605223342655,0.11163601923605126
69,0.2691375492081017,0.05437436636462254
70,0.2642117617290146,0.03717620446721666
71,0.239923807056851,0.03822857679905517
72,0.20034197453211808,0.10423019783711053
73,0.1531026222720578,0.09560058786730594
74,0.10618876582476702,0.10454334217541329
75,0.06515253949805593,0.05770831741126138
76,0.03306302172091328,0.07794618220539015
77,0.010506235043507626,0.08843274601112953
78,-0.004257626743945879,0.09269315353885432
79,-0.017414090021036065,0.09300297231871119
80,-0.042818009843112195,0.08327605676981104
81,-0.09864649023835215,0.053028455741938076
82,-0.1674115826910269,0.06844922959539905
83,-0.16420943219390893,0.1263513758825553
84,0.0265638036767766,0.08661471954796575
85,0.460461866730808,0.08688516146996479
86,0.9681812796079204,0.05701633702758369
87,1.1446990868686135,0.07884803369665293
88,0.8172782750274358,0.1198227556582828
89,0.255107467676263,0.10496316215136302
90,-0.15148646481284522,0.13305125282775238
91,-0.2856469289921145,0.10913367446553096
92,-0.21928989844123112,0.0738589088630724
93,-0.1023644998202772,0.08223648678416325
94,-0.029023249176018368,0.07889620373520866
95,0.0001547657419311444,0.1013826416883323
96,0.011835210383100817,0.13642616916767616
97,0.021035484795719196,0.06027061164134303
98,0.0336431299776125,0.12268273871387339
99,0.04949941632157686,0.0606644260689584
100,0.06981889355472498,0.06840640354432373
101,0.0952503810689166,0.07930960792958404
102,0.1261335602103896,0.05372058289580375
103,0.162676399130341,0.09231636479607011
104,0.2055372634244578,0.026357335206760552
105,0.25219560704373634,0.05392438953180389
106,0.29969611095952087,0.12413083582802371
107,0.34532501863353854,0.08316044144006934
108,0.3866101360179,0.12001772157544503
109,0.4213208315550987,0.059866502422773166
110,0.44746803617801106,0.03423596101917597
111,0.4633012089281736,0.058207220990635064
112,0.46727638055468707,0.06399773992224088
113,0.45804721063430165,0.08999883809131129
114,0.43498830566084473,0.05121280870596465
115,0.4010719830825202,0.04197763394494975
116,0.3597936418376909,0.06377729389039961
117,0.31424880989786247,0.0814791461951098
118,0.2671331442676848,0.09920007115507577
119,0.22074243098494786,0.03430514735494648
120,0.17697258512058683,0.053712125942702055
121,0.13732216942320308,0.03178799355958972
122,0.10292330005710028,0.09232201563492208
123,0.07453358453032455,0.07538530771282576
124,0.05243143796265471,0.11561096718890009
125,0.035862041910358265,0.09254810224427631
126,0.02385776603450659,0.04254858074732414
127,0.015549672793682422,0.08802089913309219
128,0.010167517443979602,0.060321283770930864
129,0.007039748039002777,0.04611431801975664
130,0.005593505429867653,0.08936013626541812
131,0.005353310933749623,0.07959284838778152
132,0.005923402945578893,0.064013485755108
133,0.006992435792455407,0.07417270551165785
134,0.00834740795116695,0.061788012240775396
135,0.009874010696011827,0.108143098292457
136,0.011556238177165596,0.13797274241165516
137,0.01338465013762484,0.0707052387559118
138,0.015233236761041453,0.07936882520915314
139,0.017017347656152478,0.060929553959161456
140,0.01871832811278791,0.09140896585051854
141,0.020383795496679864,0.09234239408281042
142,0.022131446276657765,0.050822062516740034
143,0.0241473960694721,0.04320009464804913
144,0.026683636704828026,0.044028959228096624
145,0.029964802809046107,0.06836865361722543
146,0.0350665001852655,0.07227948685094804
147,0.04394119499127221,0.06606783656713147
148,0.05830567889304598,0.05136409058428407
149,0.07961583720472871,0.08554148659194713
150,0.10906664888862554,0.1217262445776054
151,0.147746742994145,0.0998163701229856
152,0.19430760636933972,0.07674265854341894
153,0.24146693368595648,0.08822529853800486
154,0.28231330748786,0.04456990647789169
155,0.31103430777719626,0.11071985341613572
156,0.32291651201439303,0.056551000988544736
157,0.31433430799112594,0.07345182390163071
158,0.2846350423454704,0.14770698316067649
159,0.24186686305064684,0.10688813676630086
160,0.19444779848207563,0.04132669819570258
161,0.1488261108469233,0.07832795473805264
162,0.1094620522999679,0.07765846316465841
163,0.0788293514333889,0.044854767416877044
164,0.05743213672764816,0.08846645532324413
165,0.04325810938134548,0.09171346971163587
166,0.029296553775443195,0.12463369279394737
167,2.0806475841285757e-05,0.1276271621412449
168,-0.062121584144225306,0.05183160211651664
169,-0.12601753033351637,0.06816567441998217
170,-0.10135301764037434,0.10148377998052391
171,0.12817464024820002,0.021436550533227256
172,0.593289881341741,0.10850287118579902
173,1.0742664407963207,0.06808968143367622
174,1.1638326726896557,0.07303910381134077
175,0.76645051374853,0.0817611958100691
176,0.2087964288103896,0.06644554492942388
177,-0.1533761063883982,0.048372409063649105
178,-0.2429916848383754,0.07887624555187868
179,-0.15763455223112838,0.09187088408884768
180,-0.04588098178082252,0.07122596722355938
181,0.01554723578169683,0.038240689268354174
182,0.03874262474752007,0.1168038195175285
183,0.048353712524077455,0.10101817511679369
184,0.05768129160862619,0.0721206917764789
185,0.07041913946161685,0.04814646791158591
186,0.08673920486759687,0.05084468518607145
187,0.1076942686928325,0.09156493504024162
188,0.13381153804459833,0.05819716453993617
189,0.1653317726089051,0.06956344810825643
190,0.20235409120537198,0.07031979687361314
191,0.24385562864310564,0.12729200070765392
192,0.28811263915070734,0.07883655004579332
193,0.3331635377365793,0.024754418117297734
194,0.3767553070102262,0.12240271977767894
195,0.41634009740315003,0.06756932995321384
196,0.4490752271688504,0.06397549255280235
197,0.47184403309172135,0.051646315239155687
198,0.48238642514992053,0.11473066161048892
199,0.4801593634373651,0.07994143166758721
200,0.465408455161389,0.10778884809817141
201,0.43912089476814276,0.1027054357023616
202,0.40296327133222765,0.06397263491010578
203,0.35926302628616136,0.09543108526937605
204,0.31108581609706326,0.10279911442336594
205,0.2620842711980969,0.052382631364086565
206,0.21475541832487027,0.1093575953758067
207,0.1709383613314656,0.06614959142196411
208,0.13202114979123042,0.05783635041439451
209,0.09883256951896835,0.09935942861524026
210,0.0716421425709531,0.107848291626336
211,0.05016150684608811,0.08633633549321422
212,0.03360843427465756,0.07402518677627154
213,0.02096012702096272,0.07912021067715697
214,0.011608626550347965,0.08956827312010061
215,0.0048162034459606476,0.09794048628829355
216,-5.6363722984851487e-05,0.0834405046027417
217,-0.0035271635226329285,0.07367672018981788
218,-0.005993151654487407,0.06348309585554017
219,-0.007730150955410949,0.10760158125074726
220,-0.008892851397625634,0.08565797211302102
221,-0.009500069103473573,0.07455149151533481
222,-0.00953118195621532,0.04059231265623072
223,-0.009211418491494377,0.12855309883197535
224,-0.008732535849252553,0.11944373495505202
225,-0.008217537685563821,0.08616100173842553
226,-0.007720703642619754,0.12535967056802208
227,-0.007227589348729778,0.04452999222326323
228,-0.006655026418320836,0.057752982671545175
229,-0.00585112245193798,0.02958820011820179
230,-0.004595261036243717,0.09043335083563087
231,-0.0025977934781214957,0.059918686519042294
232,0.0004539453799644248,0.06857922274243511
233,0.005402278179378692,0.07756346060764822
234,0.014919034002186573,0.04511246015377128
235,0.0311456981453897,0.08012085077956621
236,0.05536170947399735,0.1078402670265342
237,0.08798446042102724,0.08088219594564353
238,0.12857108593460234,0.12098189896810332
239,0.17576488465370893,0.06236535482206711
240,0.22160093953546053,0.10565091572758731
241,0.257424413111494,0.09314234940606399
242,0.277286176652325,0.07409350119836913
243,0.27793147865528367,0.04289030430327464
244,0.2588155396293497,0.09486312905638172
245,0.22214462326547293,0.09663578633985467
246,0.17485966412850276,0.06071362629404002
247,0.12566600313113704,0.11672056220821067
248,0.08089514862347236,0.08962254697326687
249,0.044378281563792116,0.0940029128450853
250,0.017446255518581755,0.07275685611201502
251,-0.001070270114994725,0.061470730989651653
252,-0.014515119272095627,0.13755033682101656
253,-0.036709752197123885,0.09925618312194286
254,-0.08374225119094786,0.1331211633390936
255,-0.15908615472603915,0.05808639487871203
256,-0.19049530203888887,0.07589243234285864
257,-0.06604136570020865,0.027045985834424423
258,0.3039444063287257,0.1278471059987248
259,0.8125778496992138,0.0753136896539962
260,1.1195513441262426,0.10380112887022808
261,0.905797046408005,0.07714273895405557
262,0.36981961789002976,0.06340998839311836
263,-0.09627201297003382,0.0735999268231823
264,-0.29006432000614396,0.04934349756698615
265,-0.2590340692386672,0.09196122871525232
266,-0.14230099545535124,0.06613355595927231
267,-0.0594455573944115,0.06570995325150092
268,-0.025257960603787922,0.11235845002580136
269,-0.013514919008905047,0.07321493169229384
270,-0.005240140889186508,0.06365692356563521
271,0.0048140667325874634,0.049718737610748555
272,0.018372327635794796,0.08848218291036533
273,0.03600122759021983,0.0962950027011265
274,0.05865830063267935,0.05046960551839276
275,0.08680669379741288,0.04087517553220263
276,0.12042640845887725,0.040396727243325076
277,0.15901547211163566,0.10007459015822108
278,0.20193597933420288,0.07802427484088771
279,0.24687251993945808,0.092437923077577
280,0.2907788844949867,0.08611961718045878
281,0.3308436158672746,0.125754706695943
282,0.36446111267159775,0.09494817188555878
283,0.3891868431970902,0.061538542544921346
284,0.40279806619444974,0.03690012986138117
285,0.403164721711232,0.0683106725792643
286,0.3885182000839241,0.055341252198607055
287,0.3613960008348067,0.10810295520632357
288,0.3248936680224747,0.07910356114846046
289,0.2818664005720412,0.11192613233942159
290,0.23492905227515015,0.017922249381479745
291,0.1864561568321846,0.059389784680872804
292,0.13859926937887923,0.05759914485480377
293,0.09331729007184082,0.12896853215282716
294,0.0523368880951622,0.06226099830179335
295,0.017144387499452254,0.054961698377834926
296,-0.011203256653494599,0.07256589294556869
297,-0.03318801759610219,0.08902690990640694
298,-0.04984285139295382,0.10851340327216058
299,-0.0621050628064124,0.08871439403378081
300,-0.07081445189257796,0.12649433332678467
301,-0.07671331733027176,0.0931226297737552
302,-0.0804512564963021,0.07128452243972264
303,-0.08259502053086039,0.1104144454976244
304,-0.08361734404842183,0.06878370835718818
305,-0.08389361101850293,0.13322058059492475
306,-0.0837017007043587,0.073002191364688
307,-0.083221987662982,0.05071822658287016
308,-0.0825373417451032,0.05262810415135434
309,-0.08163312809519117,0.10172025827179546
310,-0.08037143410020041,0.09347556354281529
311,-0.0788301144584107,0.0946524236635822
312,-0.07726757357353072,0.03722231644234954
313,-0.07582409257434536,0.08042081937453271
314,-0.07448801653201903,0.06164751011862427
315,-0.07308810261674795,0.054720051243756854
316,-0.07129352009776004,0.08951568637079971
317,-0.06861385034331498,0.0985049490652347
318,-0.06439908682070397,0.03354726169774483
319,-0.05799739352347423,0.03980191571259191
320,-0.04760527936370709,0.07908707688527325
321,-0.030188257826053073,0.07407281141070163
322,-0.004189882688030742,0.05363179238666905
323,0.030401602501992593,0.02943357397925119
324,0.07198798948997841,0.07931182254609127
325,0.11738669744955713,0.11659886167467812
326,0.16015677091172673,0.08748013418419882
327,0.19154219907260586,0.09896136192991012
328,0.2055353939308353,0.09578397446395172
329,0.1992341041212972,0.12384679156187299
330,0.1728180080335442,0.02330718782488444
331,0.13137875990456474,0.061541183551805365
332,0.08332769159587328,0.09726902729143919
333,0.035660236778165426,0.053449212014190686
334,-0.006219509433773498,0.10951880019107739
335,-0.03751190984321205,0.04271358022692333
336,-0.05730017496259998,0.08953664412852477
337,-0.07456437678821501,0.09654398502932833
338,-0.0974814006227999,0.098171191461798
339,-0.13265929882142405,0.07753734925261434
340,-0.18513729079147456,0.05981387657191446
341,-0.2555996582600732,0.10632267126667788
342,-0.23735697954171842,0.05456768983320646
343,0.012695113323687814,0.05330877953455993
344,0.47619166395958945,0.10264604744925544
345,0.947929560651154,0.07421373440129567
346,1.013183828907452,0.08965641646811859
347,0.5824687178810762,0.051193875309628004
348,0.03455859250928648,0.11016635873827735
349,-0.3014343592216574,0.08597501951664505
350,-0.36130086271427464,0.10789169759549601
351,-0.2664190231761109,0.03170410338103787
352,-0.1626266392764732,0.12983655272951933
353,-0.10830079404364575,0.08328116012603652
354,-0.0861991836302544,0.08371753480444734
355,-0.0772261667617239,0.0431199458029051
356,-0.06968063688546927,0.10677477649554312
357,-0.057009529414668324,0.07901169832169234
358,-0.03780782172825774,0.03725379236244096
359,-0.014555576466248778,0.06572916120191462
360,0.013821997689182854,0.11171499242638824
361,0.04783485789490308,0.09722638454358781
362,0.08709156372409944,0.07889312264832518
363,0.13058315198312045,0.09595520745397428
364,0.1766449732679591,0.09491362320201009
365,0.2230826661985812,0.08631514233250309
366,0.2672332693800061,0.0618007444478049
367,0.305444224570112,0.07990133489133656
368,0.33470656345678157,0.11690189313599868
369,0.3528025462887773,0.07725760550257811
370,0.3583056618757323,0.11117491091186679
371,0.35058062758815534,0.04133566054084804
372,0.32943148381655324,0.06851813927008835
373,0.2963601174220622,0.047453631616145416
374,0.2550181045196003,0.04996250311042381
375,0.20873008077462352,0.06238325826049283
376,0.16042331953391104,0.10194219154405738
377,0.11262773182555041,0.1122987071350103
378,0.06747586635895395,0.11950862422399632
379,0.026702909524841695,0.12392695634017725
380,-0.008353314604741887,0.10555610334505149
381,-0.03672733306784557,0.035778737009843214
382,-0.05844138678018944,0.08644740619243937
383,-0.07452925166129845,0.0603822815330699
384,-0.08598215068696756,0.08205856272880459
385,-0.09369697240864147,0.10300775095165078
386,-0.09847310160757689,0.05192953451786013
387,-0.10101232354049729,0.07222014327378734
388,-0.10191882393959448,0.05669834459766608
389,-0.10169918901252709,0.11531389418443845
390,-0.10076240544242152,0.03750044591638524
391,-0.0994198603878717,0.03651008041284406
392,-0.09788351371560629,0.1296390811034109
393,-0.0962552940720081,0.12807098642633313
394,-0.09446931487878289,0.13705101566095887
395,-0.09240652982391555,0.04098118423187297
396,-0.09037808055994898,0.08360326225792937
397,-0.0885876106572857,0.10892166740989333
398,-0.08708550546920342,0.12540778067051794
399,-0.08576889213185612,0.05399113781591319
400,-0.08438163956427307,0.06321038778570472
401,-0.08251435846835949,0.10767540494365213
402,-0.0796073018910923,0.07677977846461047
403,-0.07496894950255437,0.07590765896572146
404,-0.06777429547364067,0.06899646791424587
405,-0.056927050811139274,0.04048228614442523
406,-0.03929471903478876,0.09141773521154119
407,-0.012721880992776846,0.11014701430899983
408,0.02305876506194777,0.09963217348861719
409,0.06642640347167608,0.13413574327362793
410,0.1138956080921184,0.12513836198916847
411,0.1597385473247132,0.08517116084281673
412,0.19489494944815333,0.07179620242642198
413,0.2126124276880217,0.08652015005188837
414,0.20967221775135012,0.1293473248752322
415,0.1863498097376728,0.0370755624875966
416,0.14685286942042627,0.051251901061012115
417,0.09973442054664372,0.0858041748049555
418,0.05254500450892528,0.07856557327965003
419,0.010870096711728693,0.05877886542304727
420,-0.021757620175963215,0.09618455111645532
421,-0.04481122943111003,0.0927731530115497
422,-0.059829478794651024,0.09852396836937877
423,-0.0739069615857049,0.049832050834523585
424,-0.10053825706953186,0.0528986359724892
425,-0.16315281882513571,0.06972687466463834
426,-0.2499747514921203,0.11831193065398794
427,-0.20335207306376032,0.07363685383732872
428,0.060692295127443265,0.09175752780386649
429,0.5167146269283396,0.12005399071160336
430,0.9853721094708385,0.08772249509273042
431,1.032921945406961,0.07520462202342688
432,0.5939797805258965,0.06024382904017163
433,0.050510781459337004,0.08550905606631387
434,-0.274130330910702,0.06617967992408368
435,-0.32435497248566986,0.055695144606294066
436,-0.22872792710198847,0.1153729205446265
437,-0.12483479658902508,0.14328847140030043
438,-0.07000706062070465,0.09699510157689865
439,-0.04934091486557394,0.09290117653099032
440,-0.04000753151848276,0.059983085768917414
441,-0.029347953836380794,0.08690949321781795
442,-0.01371451982801351,0.1300736175846104
443,0.005446021150540617,0.028599564440830453
444,0.029661606467814763,0.04633772321094815
445,0.05948320720113765,0.05373952011763721
446,0.09499227339486432,0.11202527744836868
447,0.13580289198852272,0.10496346634001198
448,0.18143632994404182,0.11889968891758049
449,0.23002244835616575,0.09233986949599414
450,0.2783438705074102,0.053614252201803034
451,0.3234158844620525,0.09098865885391433
452,0.3625018244242158,0.12160015640095306
453,0.393143969521033,0.030853833910458553
454,0.41315288878407663,0.11089522381902642
455,0.4205849685006217,0.10219512964582743
456,0.41347192629503565,0.11368872092262473
457,0.39216019003911157,0.04015581225229511
458,0.35990999604132207,0.03420181869460323
459,0.31982350461621006,0.05144306075580111
460,0.2747585566958515,0.04670392621719822
461,0.22732867382987074,0.1327565267038708
462,0.17990233034024586,0.0377095967869219
463,0.13459342748991754,0.06539123500792762
464,0.0932644757093607,0.0833838389199623
465,0.05753515252491362,0.07575498675288894
466,0.028629593633963245,0.03645933690896198
467,0.0062427797304224686,0.06853328409083961
468,-0.010578378770187155,0.09387331694232469
469,-0.02271776336062806,0.10649353116044266
470,-0.030988815677751105,0.029762238927750238
471,-0.03613453750248937,0.03570353589437571
472,-0.038827996097278356,0.05098804174469466
473,-0.0396798391055338,0.041003717058969824
474,-0.039236691761331974,0.03572234768105766
475,-0.03797491921910399,0.12505292051046413
476,-0.03626981969317958,0.0835622103271508
477,-0.03424443015826915,0.0886327865672065
478,-0.03200569145388528,0.09796355748784039
479,-0.029646207846655913,0.10934745878402981
480,-0.027232058259079754,0.06627240401166856
481,-0.02480279626952587,0.0979464664294959
482,-0.022371118751457544,0.11235606956367704
483,-0.01991723925162054,0.09638426063859752
484,-0.01739070589576677,0.11851228165108288
485,-0.014719255932243207,0.07100167342905227
486,-0.011875536231165391,0.08599173635766555
487,-0.008566458936971779,0.09790586395571195
488,-0.0037151182373589883,0.048293198846847185
489,0.0039425043356534585,0.12811650803364985
490,0.015821601847558726,0.0769039715304091
491,0.03348854196136674,0.1064048933353309
492,0.05866096914271173,0.04785136477673854
493,0.09344759400150557,0.10756211023508029
494,0.13907629820420975,0.020027681609655613
495,0.18827558643950978,0.08913287182905041
496,0.2335168413399274,0.1033496830275641
497,0.2686483436509533,0.08088755168345736
498,0.2888952722310513,0.09631115445809962
499,0.2908597040516539,0.041389194381023606
500,0.2725230518343102,0.09425919445388622
501,0.23605608396638042,0.06320503548089365
502,0.19050126637339634,0.0874838925944038
503,0.14383419125253002,0.08945959059981778
504,0.10187848618093422,0.08205048976464996
505,0.0683153589276911,0.12005766024754722
506,0.046336538880474926,0.11923114808054817
507,0.03291466611610105,0.07244818189345793
508,0.015078006535479268,0.11689443380709616
509,-0.016440247824752806,0.06658078607350754
510,-0.06666394864042698,0.09053743253853787
511,-0.13528134804862496,0.060093934318059546
512,-0.14163100275780827,0.14158600671787167
513,0.05713029737624715,0.029064760874832545
514,0.48479996708737133,0.05783827832760932
515,0.9919546796504335,0.09019122825847709
516,1.1448893785910417,0.07642837261243435
517,0.7841306075540104,0.028282970589495422
518,0.22709244578779886,0.08586871585070012
519,-0.15402495290497129,0.06247977039891649
520,-0.24966253385293866,0.06168430043369366
521,-0.17420560350075107,0.09382747161734584
522,-0.06784440999162361,0.07677794166601802
523,-0.0023980426052888464,0.09918689225950393
524,0.022061591944153802,0.06372136793252985
525,0.032257117734263915,0.12180555846887074
526,0.042333895691191316,0.11278170798325553
527,0.05623310547273949,0.08915596689574798
528,0.07365309027274768,0.0589735714197756
529,0.09583563032698669,0.07782445168030867
530,0.1233227034648178,0.04474981281520661
531,0.15630991140099346,0.08080946348565203
532,0.19534404140309533,0.09989985267932071
533,0.24005491016709463,0.039596355132905756
534,0.2872508705802113,0.115162761171869
535,0.3339316078509267,0.08871007934976921
536,0.37737921072057246,0.057936631983818036
537,0.4151581714633156,0.04735492845249853
538,0.4451153858861823,0.06822943307725934
539,0.46538015332904165,0.04135001630241367
540,0.47436417666460945,0.12000844903913113
541,0.470761562298447,0.07298003248231894
542,0.45350800386976325,0.1326462006891244
543,0.4236756879623422,0.05143771680385446
544,0.38494527861783057,0.11764065152229897
545,0.3407245416201603,0.06652688678572997
546,0.29399121125533695,0.058579226998482066
547,0.24729280900492367,0.10377373204558421
548,0.20274663741433985,0.06966870698540623
549,0.1620397800928759,0.113052614619408
550,0.12642910171366983,0.10781052099718091
551,0.09674124801372268,0.06133528686221696
552,0.07335579909788002,0.03385384018086193
553,0.055598123318155494,0.08548415101186818
554,0.04246788529597654,0.06062894339042069
555,0.03307219891303688,0.062833532484834
556,0.026620536214404994,0.05738408739688129
557,0.0224247274085239,0.10049307126710409
558,0.01989896086721206,0.0957414268049905
559,0.018559783125662047,0.04956060615393035
560,0.018026098882441506,0.04243016944375834
561,0.018019170999492906,0.04188303713239757
562,0.018362189553126,0.05551873694195965
563,0.01895093314818934,0.12317443635743623
564,0.019735049184127006,0.035449588069863716
565,0.020751081745549058,0.040652333723745215
566,0.021895906336630272,0.09347356508490504
567,0.022986600593449355,0.09787724401298402
568,0.023939917420991504,0.11918627126329938
569,0.024775532850453686,0.04267864259506911
570,0.025616046039243688,0.0086587351225381
571,0.026686979270981088,0.09369288163970815
572,0.02831704522597668,0.10178068615538877
573,0.030929173599223543,0.05437415941873876
574,0.03520328277351521,0.09957679651999954
575,0.043593403454565485,0.12112279744203694
576,0.05831986068989177,0.05689114126110401
577,0.08087349240117965,0.11510405936296116
578,0.1120156493842854,0.06713394415906901
579,0.15182105870457932,0.12113104745919245
580,0.19892890080873976,0.07541975338289153
581,0.24514906345612927,0.09159916325145259
582,0.28237259898448136,0.10997487236487247
583,0.3046384442032128,0.07097591744932234
584,0.3081114622136545,0.0672248028379811
585,0.29111962923338647,0.05138729378032715
586,0.25569098672095475,0.12580220383892005
587,0.21028967470361865,0.067063050362223
588,0.16293873297187228,0.06377986840068113
589,0.11961235318331963,0.13413507034078678
590,0.08423587886266974,0.027839611629697277
591,0.06048405248019086,0.12496708281998892
592,0.04843473795570317,0.08056948957243493
593,0.030444157373555426,0.05093537375937964
594,-0.0042748433054593995,0.12653143643685072
595,-0.05720492227227218,0.04421761699258378
596,-0.12052824812950516,0.04821427762540521
597,-0.1475740127294764,0.12354852510288944
598,0.01864093254570735,0.10443150247148696
599,0.4261815170647917,0.06113965126377008
600,0.9386893476206488,0.05649329415158075
601,1.1575610370880414,0.12397781949955936
602,0.8455247128144893,0.07541084002223528
603,0.28656526582978376,0.13326358139011918
604,-0.12174044198479826,0.05144729555300836
605,-0.24441463685607684,0.018131390958455496
606,-0.17330546238549357,0.04343390564728823
607,-0.06538815543308943,0.04795712995711976
608,-0.0003216986157323835,0.02874016901485324
609,0.024512212091975683,0.11317904033524576
610,0.03349665116372806,0.1085893300588774
611,0.04004703524212905,0.0973777795793372
612,0.05126304639979843,0.14724948077533068
613,0.06792580363348341,0.04649656150333041
614,0.08866730976313832,0.054248210994095186
615,0.11498636848583617,0.11702307168615982
616,0.14715515617661892,0.0847167102201697
617,0.18485606011673128,0.05596623295914165
618,0.2271861489135053,0.01175274621812301
619,0.2730901333288381,0.12307153687752248
620,0.31969327095013517,0.045760742299640056
621,0.3635392221881821,0.06484416208059066
622,0.4015790670012733,0.07642561434972042
623,0.4311724565742486,0.05368063871020619
624,0.4500895670105699,0.0453482083158237
625,0.4565092855120052,0.05120209287466411
626,0.44880222150449156,0.01589477686845057
627,0.42639751210064225,0.10532743234252152
628,0.3925976433338365,0.053996658700147956
629,0.3508095276707995,0.084399785586956
630,0.3041072493625619,0.0442932763957132
631,0.2552320644444722,0.105475164214766
632,0.20659240400714998,0.06470801747122408
633,0.1602678036152054,0.062192287950525206
634,0.11801653102299271,0.05959320212655741
635,0.08126613923250603,0.07443505180492922
636,0.05108999979997499,0.03986025220155904
637,0.027499631268551934,0.07684708738002614
638,0.00950483862339842,0.13504989599698056
639,-0.003854024988133895,0.057033330056047014
640,-0.01344377796130275,0.034740659790876774
641,-0.020038410233975717,0.03508428870817676
642,-0.024319085170348864,0.04216110094832619
643,-0.02687998159383081,0.09510016469889686
644,-0.0282412175974857,0.1349075820748691
645,-0.028834271612230216,0.09530185635189274
646,-0.02899570228552247,0.07600288854564292
647,-0.02886857176441108,0.09413799207083492
648,-0.028571726682449824,0.07187538060590623
649,-0.02822432830479091,0.044169073870268985
650,-0.027907941116220494,0.09864405952722724
651,-0.027666532821158805,0.09092873503623036
652,-0.027506473803268313,0.09143785686706532
653,-0.027389069457446097,0.04859296779195373
654,-0.02721180158503568,0.09984267816119302
655,-0.026828801119963882,0.05412832610809682
656,-0.026060345418385755,0.09972461015866639
657,-0.02475903288388643,0.09726973857468832
658,-0.021617512097715133,0.07450943030584896
659,-0.014912957365443864,0.10085464943424828
660,-0.0029816671307937147,0.06922728999398108
661,0.015780936024367215,0.07848362468783103
662,0.04292030535786302,0.11160507757282957
663,0.08017621974133778,0.11502177535313778
664,0.1263201132003207,0.12155518775865817
665,0.17338419836537075,0.11324879844007946
666,0.2140353581223119,0.13574942631729045
667,0.24224464211261149,0.08366290808569807
668,0.2532876986138085,0.08426492684589135
669,0.2437447768034501,0.10926560618932285
670,0.21332398258460103,0.08046648687464078
671,0.1698146630817397,0.11685174848005288
672,0.1215623893389467,0.08966752573507937
673,0.07520533155544161,0.10238228923575764
674,0.03570361272714685,0.07013940473951846
675,0.0060684467481251165,-0.9358049042145419
676,-0.014362971648942175,-0.5127105715493138
677,-0.030514993481419412,-0.32048424665005654
678,-0.05163482999132887,0.9811166620563677
679,-0.09130482408615433,-0.3228974718292702
680,-0.17388250297124602,-0.5380861962349811
681,-0.23659337636370753,0.46218619240847336
682,-0.09523740099612987,-0.5819205453081469
683,0.2895196856016884,0.5892220872026489
684,0.7914948552168454,-0.053072368874660485
685,1.0912122996338007,0.8154013615153275
686,0.869949152759063,0.9976054530172609
687,0.31691170700271126,-0.8640307452945263
688,-0.13456644304572837,0.09894266445989244
689,-0.3087704270216563,-0.779775125501087
690,-0.2596825914039456,0.1243493720968734
691,-0.14565515682309887,0.3445889198338242
692,-0.07219186337843503,0.15268212353130808
693,-0.04411038508966672,0.5899896492392807
694,-0.03479509622386042,0.6220081742373673
695,-0.028165304008568624,0.9391189591755743
696,-0.01730966751920784,-0.6779660007554702
697,-0.0028358836182107747,-0.5757353782384689
698,0.016286279153400012,0.6198142453537209
699,0.040905168137092,0.09016549640330043
700,0.07130081391444487,-0.16563701651026155
701,0.10729530732541234,0.5560380380882239
702,0.14863129008652104,0.30324154070475856
703,0.19384691679449775,0.3089432330185374
704,0.23971488028783353,0.17088146784664954
705,0.2832092242585437,0.44557501382198283
706,0.3215488969830685,-0.5079907875199157
707,0.35219789037569976,-0.5581873460790048
708,0.37286654999384006,-0.5393291132839724
709,0.38151162440298453,0.7795638901617757
710,0.3762596887926262,-0.4808151350906528
711,0.35651719660482667,0.8864831225887722
712,0.3251316211866782,-0.4008823909919569
713,0.28518658799398755,0.93008497879202
714,0.2395707630872772,-0.5015442418952114
715,0.1909801219308446,-0.7721427740305217
716,0.14191930745119202,0.6613444786934866
717,0.09470163243951492,-0.905602211118963
718,0.051449079551674555,-0.008248532979603316
719,0.014088099242410576,0.08260305273798677
720,-0.01641154672908976,0.9592737841795768
721,-0.04069118943425554,-0.7602873198020053
722,-0.059545190275032286,-0.035388045395215076
723,-0.07374772203509686,0.18280220956162904
724,-0.08403151533292998,-0.205253062074456
725,-0.09110264499998966,-0.3339440737525742
726,-0.0956505713277149,-0.8298521057318111
727,-0.09834813016369684,1.0840601655139137
728,-0.09985171170067753,1.1326039440908715
729,-0.10065736520929215,-0.03646213518460401
730,-0.10087980068935155,0.5553112988366746
731,-0.10063478264248925,0.4191548539056428
732,-0.10001185973069396,0.6610991610550389
733,-0.09907865741271125,0.5077555402799385
734,-0.09791765727787533,0.36296756376512757
735,-0.09660255218698267,-0.8129640659386719
736,-0.0951793855015055,0.4087116992644579
737,-0.09366646472675944,-0.5240825334067947
738,-0.09204564400850947,0.7423963672884942
739,-0.09019341479405744,-0.27028640354866795
740,-0.08810412716890392,0.4467933130466166
741,-0.0854386417270783,-0.5395462632329341
742,-0.08140433036597067,0.023511373874549334
743,-0.0747508170680602,0.6165959184933234
744,-0.06373983155153172,0.5875176594583651
745,-0.04623124373442739,0.21045261776442023
746,-0.020357862889143413,-0.26623422528159113
747,0.014811280230004302,0.2998310165942556
748,0.05780444689282944,0.6218972542909074
749,0.10455646234817567,0.22079032618126704
750,0.1484087158239206,1.1444510371263659
751,0.1809173276339836,-0.600874509660095
752,0.19543115490486837,0.45508018910786696
753,0.18858797495142568,-0.12932333696105283
754,0.1615166587244299,-0.012040366711807339
755,0.11978763528632064,0.5638408756166836
756,0.07136663773883849,0.6940202065392701
757,0.02424279707208845,0.32226024368876427
758,-0.015975893548383413,-0.7129307999796106
759,-0.046510806557707854,-0.1629036109035949
760,-0.06608036459881064,0.07707186657859079
761,-0.07991629464390225,-0.013852460710810942
762,-0.09943481857818938,-0.3150446174176381
763,-0.13541022289946253,0.4191905235644889
764,-0.19855079148855817,-0.20918372847471833
765,-0.2776870491520679,-0.5529274461342486
766,-0.18860183358634464,0.6515236253792938
767,0.15624867573791698,-0.36878783096077394
768,0.6607755046502077,-0.8298208294981801
769,1.0349084654557503,0.2663280391707199
770,0.9086901767860383,-0.8548822969911156
771,0.389613251206916,0.708311420637031
772,-0.1085633770345343,0.19484832094396298
773,-0.34919580634397734,0.58364857945503
774,-0.35134226029590165,0.10990761476265846
775,-0.23656309506702364,0.0673650924900765
776,-0.1449470596244261,0.12803084933134687
777,-0.10179917764578525,0.056876865039986096
778,-0.08815856793306281,0.053777316710256026
779,-0.07925063658219059,0.10325292179692973
780,-0.06927699477609425,0.11734701383220819
781,-0.055671721877163356,0.106295009556938
782,-0.037769615153443785,0.0892108759041335
783,-0.014899164818090546,0.08568239597149252
784,0.013657182424962487,0.11209139226322638
785,0.047993660978687847,0.08862322897353235
786,0.08759513302305828,0.04306846773339721
787,0.13134220118496714,0.09793240699554458
788,0.17750628661570939,0.08061192996134305
789,0.2241656288518794,0.12692203344177108
790,0.26810530195885335,0.07490945785105868
791,0.3058092502002428,0.05728636435368843
792,0.33448689062450787,0.06471352741433375
793,0.3520730745551329,0.0806872483054832
794,0.3572275973958296,0.09216523676030637
795,0.34933534334785216,0.08555421225020256
796,0.3282289903141989,0.0417101127195469
797,0.29537870932667043,0.03696152247274358
798,0.2543381633251979,0.06639382267599567
799,0.20836090069540142,0.12659101372581577
800,0.16032030794075353,0.0923001771881205
801,0.11270960968259795,0.058150244641733115
802,0.06764186866010093,0.0894283398964499
803,0.026850212974638035,0.08786208766776994
804,-0.008308880418702418,0.10554815738229105
805,-0.03683564202732142,0.08601780492876153
806,-0.05875834909140827,0.11293747139932855
807,-0.07506656289063895,0.0991098936495444
808,-0.08670204977523978,0.07675323944784511
809,-0.09451771233638899,0.04550003834407826
810,-0.09927758787581902,0.06050973614300103
811,-0.1016568484058126,0.059276231517841234
812,-0.10224180064920833,0.08592656506402155
813,-0.10153096997677306,0.12819931537409723
814,-0.09995296307968649,0.11061381500866503
815,-0.09786364100994539,0.06722831800980365
816,-0.09553051344384479,0.07399122563657075
817,-0.09311458375657376,0.11991767953078997
818,-0.09060647333748681,0.1318249689385445
819,-0.08818889163037237,0.11092552110693317
820,-0.08602972215602078,0.056466755271781355
821,-0.08422347288205,0.08800758288228834
822,-0.08279127622290763,0.10378321911310379
823,-0.08167781226476413,0.0038926043063047286
824,-0.0806931565036438,0.07914668616878977
825,-0.07951765154780509,0.08772603283520879
826,-0.07775570387282042,0.0440621564598512
827,-0.07496357830006577,0.09166215176332211
828,-0.07049258565097478,0.08361689307368689
829,-0.061879966907715224,0.04431395892253519
830,-0.046855790564042404,0.05746650294996453
831,-0.02386140117040161,0.09960384145109223
832,0.007950580666071697,0.038348269263172724
833,0.04871185567819264,0.06737653221338365
834,0.09770306900542623,0.07149189360564065
835,0.14757869928320572,0.04749244565859142
836,0.18963781199563573,0.1130146198327252
837,0.2174700950840722,0.03706092161208313
838,0.2269558678764277,0.07305246722599316
839,0.21626608108713863,0.07271916936965243
840,0.1861895952868692,0.07918066678040862
841,0.14354883853182712,0.08236309096938224
842,0.09695387980082923,0.11230081366083348
843,0.052832583159099916,0.05205313466573264
844,0.015477738833321158,0.059965030434552716
845,-0.012944476655718897,0.14338605707509125
846,-0.03170236067220721,0.06860897551900164
847,-0.04580727047036326,0.061653103466663056
848,-0.06700056289077572,0.099231226111321
849,-0.10693159748366118,0.0535840681686848
850,-0.1786593773378497,0.06750535343372374
851,-0.23891856058315725,0.0844410129090148
852,-0.13377502885720066,0.12431087862890969
853,0.1987001711715865,0.11736996608745594
854,0.700739880840344,0.06830674805272056
855,1.0781543384732708,0.0448976612825672
856,0.9656636458061554,0.06000195306798675
857,0.45602184860051304,0.07308520212583564
858,-0.05281067996356422,0.09020359623433513
859,-0.31445856417291124,0.051687172723468525
860,-0.33457156360136797,0.10253187830103078
861,-0.22286205428504818,0.03120046760049543
862,-0.12157188348306039,0.09816682314874416
863,-0.06926740958536619,0.06196039905821187
864,-0.05059317917222571,0.13583902104109963
865,-0.03946521165726745,0.11574317794879851
866,-0.028210834966662976,0.08786290903977241
867,-0.01386453718871763,0.12442666464483533
868,0.004444778212920029,0.0927565901250938
869,0.027312123476806324,0.07317031283416069
870,0.055528906695598144,0.07455231413115261
871,0.08935151949034752,0.05941648440301861
872,0.12849671111050862,0.08743225961984062
873,0.17214103922146062,0.07019850252056795
874,0.21894178040674944,0.0833480469303783
875,0.2672037522942236,0.05213556812286121
876,0.31371603235199674,0.1108143095769158
877,0.3553261737052939,0.07467634476005766
878,0.389340119233161,0.07612253415617665
879,0.4135222015684424,0.04442348660252444
880,0.4260951430978173,0.10120999115931155
881,0.42572820523339694,0.08387710961870264
882,0.4105849471000381,0.11938699518710046
883,0.3825388649030882,0.08622536989543243
884,0.3451564555486653,0.06551702448704447
885,0.3016566962264565,0.06080692351976915
886,0.2548860182636155,0.06137403208381163
887,0.20732041573039925,0.04448562205054081
888,0.16106693109164452,0.10173643969355023
889,0.11785816343652991,0.13412006795592657
890,0.0790518569452418,0.10942642654619718
891,0.045630900888973064,0.09239743828940561
892,0.01820332962992282,0.10549798631620201
893,-0.003020814037971202,0.10336821573832952
894,-0.018605428746539095,0.06424697259809645
895,-0.02954363077973606,0.0922525383716613
896,-0.03674084999479941,0.048812948464508225
897,-0.040999293464096254,0.1100797888099457
898,-0.0430179454751257,0.05787140834676833
899,-0.04339256753051931,0.10126311070196227
900,-0.04261569834804106,0.06331748105986895
901,-0.04107665386058737,0.10005645600785336
902,-0.03906152721618721,0.08680990209675242
903,-0.03675307572511287,0.04754133161202652
904,-0.03421582052458334,0.10609610907971678
905,-0.03149872877254926,0.05627864960252902
906,-0.02870887681317529,0.04509085276501326
907,-0.02591378570893938,0.03901070464452278
908,-0.023142960251787182,0.04831058760157171
909,-0.020378016160070362,0.021610091136136354
910,-0.017551454150136828,0.07287017247495291
911,-0.014546659936330954,0.05323239246878541
912,-0.01119790423099458,0.12442823973873715
913,-0.007290388374232199,0.05465014019589186
914,-0.002617924092742685,0.0696489214441844
915,0.0038932402371107673,0.09093388159145029
916,0.014025257049792964,0.05632333283809811
917,0.02940583569499086,0.09459682150966511
918,0.051496466728735195,0.05419177647821951
919,0.08159242191340117,0.04893276223230499
920,0.12097078556506552,0.052356418831084106
921,0.16809388098320013,0.062089717458372946
922,0.216348220554523,0.03613400241599313
923,0.2593284621630344,0.05371773652106836
924,0.29125457287247136,0.08387578696420804
925,0.3069807999009024,0.12315402256085167
926,0.3019473181100654,0.08372007583284112
927,0.2752021681278161,0.08763244066543714
928,0.23462806963466096,0.08335111255494132
929,0.18809269344429663,0.056954729669530656
930,0.141855712274457,0.05827577940067725
931,0.10056880074694063,0.06228230696352124
932,0.06727563538760475,0.13337815615254517
933,0.04358580312767316,0.0198711277683515
934,0.030609501708682568,0.07607622017931683
935,0.015111991992004773,0.08776907422742054
936,-0.015343020764501983,0.13288327385820173
937,-0.06690500057610158,0.08101381101320987
938,-0.14165817718831994,0.13181132340447835
939,-0.16907988605444496,0.06097999064787246
940,0.01501244717768771,0.09407733485965643
941,0.4328923692662682,0.11180323423348797
942,0.9401177145784528,0.08824440821547182
943,1.196219542053266,0.11368535759232293
944,0.9369396603619824,0.09788843826606068
945,0.3822355558455064,0.03014957862676895
946,-0.0679470536875836,0.045920388535519635
947,-0.24712968390386336,0.09674032726220422
948,-0.20414611961358595,0.11924969969954789
949,-0.08877777030743549,0.05807342218793107
950,-0.00686088905184403,0.03281493446941089
951,0.027806887250593222,0.11375904015528393
952,0.04099985176905136,0.08412716286828298
953,0.04916437990948409,0.10574647428102879
954,0.06069374076208175,0.09987453309312186
955,0.07631183739379103,0.06701588584818444
956,0.0959213547993835,0.07895456495080196
957,0.1206482864311064,0.10356207982072399
958,0.15087680244476087,0.13181309265377344
959,0.1866033495861931,0.04253272826587369
960,0.22791033102953642,0.0913630796917236
961,0.27385145120041215,0.11134902714631033
962,0.3214439681012744,0.0689118485264427
963,0.3678554202416047,0.08194717106194084
964,0.41046170235604107,0.11548927582825264
965,0.4468523846415479,0.043395894010039404
966,0.4748240270689028,0.09823700159266945
967,0.4923806333508737,0.10536546521068939
968,0.497742764808494,0.027461127178347318
969,0.4892191898795299,0.04301636704961607
970,0.466551079608238,0.10013787465495641
971,0.43293743248493266,0.11802125279613651
972,0.3916170896394317,0.12720915737671637
973,0.34552061259628664,0.10854006915661525
974,0.29726674329937,0.07081427233288415
975,0.24915479462930373,0.11189340573991613
976,0.20317361213156726,0.05791067525043768
977,0.16100376320155568,0.1194433471862848
978,0.12401753708457398,0.14147072650284065
979,0.09327407680704947,0.0718147892354082
980,0.06900189729511323,0.06704712665734323
981,0.0503181960242717,0.09344356617170033
982,0.0362981841470842,0.0789030126401711
983,0.026096605973474168,0.04701984758951468
984,0.0189542118392972,0.0920629294351583
985,0.014213569747748695,0.1138298775384125
986,0.011301571964049366,0.10713106616806113
987,0.009723919246608394,0.09539931354278655
988,0.009059578835453271,0.08386496983146739
989,0.008963838952140616,0.11217280643275634
990,0.00923395182284105,0.11302013430215666
991,0.009807800360577502,0.035065831818912443
992,0.01061744924470029,0.09709922067671876
993,0.011618666369593692,0.056577843568647576
994,0.012781915532068304,0.07517241811616299
995,0.014067210488573961,0.15058221239586672
996,0.015450291881686331,0.09897355857336657
997,0.01693068599747592,0.09020031431197624
998,0.018531704765507393,0.12940612462444964
999,0.020296524394491804,0.05898703368595462
1000,0.022352061722354953,0.05582513748666634
1001,0.025268533439391925,0.06988277271683423
1002,0.02995294213436,0.0639587887479428
1003,0.03760664628321907,0.09558788545665636
1004,0.04973352340028978,0.10141731018674195
1005,0.06816545734705323,0.07120544490963542
1006,0.09515490591078914,0.07280585705534619
1007,0.13238048428456328,0.07934632932126429
1008,0.17605167421132728,0.04882450607196502
1009,0.2211806765489954,0.07959765342518511
1010,0.26248548095094065,0.05446717883603716
1011,0.2943898263258489,0.10930256635847413
1012,0.31102320083771895,0.1206588716101313
1013,0.3063079404586544,0.08397849802207005
1014,0.2797747486597602,0.11250619750146454
1015,0.23937426927242186,0.0874137544525328
1016,0.19254458638418792,0.0751033230558064
1017,0.1454059180407399,0.043086784859868714
1018,0.10276061664460248,0.0157998369222543
1019,0.06809316895514328,0.08241641940465555
1020,0.044902389926464156,0.05807338152579694
1021,0.03130945806425079,0.046247565739251824
1022,0.012042257397297869,0.12801752372528055
1023,-0.022824046909622718,0.08355491651541996
1024,-0.07645661537134253,0.05974880382535769
1025,-0.14498690917712664,0.103661586466559
1026,-0.16020893558850755,0.11433635710642667
1027,0.020708687834544943,0.08337129189218476
1028,0.4308538878466864,0.0783064696244061
1029,0.9462883696315191,0.10876935532044955
1030,1.158645347733728,0.11483500456192688
1031,0.8513734492165487,0.08188430227907695
1032,0.29232441678764054,0.02857981613988182
1033,-0.12387035988291792,0.05629067959707243
1034,-0.26069884476371524,0.04662622479542585
1035,-0.20208405205467192,0.09163335563752105
1036,-0.08685763688242568,0.09498603112439562
1037,-0.018450951077744124,0.06258676906307349
1038,0.007915812017059182,0.042612356635064026
1039,0.017291756046819175,0.0647722623577941
1040,0.025746773153449375,0.09399830507937955
1041,0.03663306453211037,0.09329004979746511
1042,0.051536240620688484,0.07312684091292078
1043,0.07107465784197639,0.12047770847540537
1044,0.09584562239080419,0.04739362073866868
1045,0.1263637341772956,0.07072078073770459
1046,0.16249417273410882,0.13527960543912698
1047,0.20343753265357065,0.03186011016325165
1048,0.24773007624699214,0.049218345283378734
1049,0.2932438415195321,0.11246164133257652
1050,0.33757047022924047,0.0679607746250948
1051,0.3775961337865645,0.07386755720513258
1052,0.40968806850496414,0.11796534311315682
1053,0.4311399455078698,0.07130027820030164
1054,0.44019184443649895,0.0605291016250001
1055,0.4360318469471564,0.08256432039995024
1056,0.41879490910194045,0.05189083718868888
1057,0.3894396539746151,0.03430166592727136
1058,0.34969494333322204,0.10391760690419936
1059,0.3032039524473169,0.10368796393611777
1060,0.25339565038321316,0.09216714492329478
1061,0.2031918556651245,0.07091489053802096
1062,0.15500723627515883,0.11614158270566881
1063,0.11074930965334887,0.10683488061653246
1064,0.0718187160685021,0.03345335109382331
1065,0.03912590738419674,0.09759509518270412
1066,0.01323154436417283,0.035248609689245966
1067,-0.006600005204948809,0.11625641358245205
1068,-0.021386402105006308,0.04297345743111551
1069,-0.032048850133929524,0.04137861089474636
1070,-0.03941143307062899,0.054058048344890273
1071,-0.04420102584771928,0.05522978114317377
1072,-0.047047294551515004,0.10753668178907942
1073,-0.04848269642203694,0.07766675750028683
1074,-0.04894521790289183,0.07236347762889692
1075,-0.04879727620261502,0.04495439452291057
1076,-0.048314356489290146,0.07329962107922705
1077,-0.04767479731550529,0.09033663766676944
1078,-0.046959728387552524,0.03559021386184186
1079,-0.046117884367966044,0.04381140912691542
1080,-0.04483961321858918,0.11201961267769324
1081,-0.04355509611359747,0.1237871427371037
1082,-0.04267387109279057,0.02797845505225137
1083,-0.04236468251866749,0.06711264234314895
1084,-0.04255180427829415,0.1409400025557594
1085,-0.042886625396280784,0.06963610526317425
1086,-0.04276317969167775,0.03589807365921378
1087,-0.04133456894970409,0.07401024070843334
1088,-0.037512779719650224,0.09201980103747491
1089,-0.029968087906598686,0.12729408866395325
1090,-0.01712981336020558,0.06601182815818202
1091,0.002813517747173008,0.045155490573022976
1092,0.03187774411281447,0.10488799778204935
1093,0.07016251080148858,0.08794920667848062
1094,0.11428409441046532,0.06968905032630109
1095,0.1592706206326038,0.11219757197920453
1096,0.19871046863580435,0.10548975697986214
1097,0.22476307672158458,0.02461702692148947
1098,0.23041940346221584,0.06696185443204869
1099,0.2154410723798658,0.05246195254830522
1100,0.1828572000989374,0.04526284640254667
1101,0.13792303489304225,0.03446085857618153
1102,0.08811995668499982,0.11884462911329388
1103,0.041776606823055576,0.07998168270818651
1104,0.003395682071434922,0.09476190151020548
1105,-0.02474205508113908,0.04747609136733468
1106,-0.043723510932624575,0.06468988879444809
1107,-0.05807582602195514,0.10471583919525271
1108,-0.0748551480383164,0.09466699876130119
1109,-0.11867311332399302,0.07843919495417401
1110,-0.19276979695754648,0.05309184537111731
1111,-0.23257357710297277,0.07851421239468208
1112,-0.12491889222403002,0.09057101251453849
1113,0.23887178455356653,0.08367987754867273
1114,0.7567864919840869,0.06342977273863738
1115,1.0680257157034976,0.11905168096408898
1116,0.8576570853321077,0.10629390814988018
1117,0.3115770670678209,0.015965337959423828
1118,-0.15624398922110744,0.0446740845855035
1119,-0.35114973436166336,0.026889146247568205
1120,-0.31840251381856416,0.04479730881794426
1121,-0.20937294930777783,0.09281118419318198
1122,-0.1255373958840771,0.0841788352536576
1123,-0.09211275217637901,0.07083657874581488
1124,-0.08085751225909447,0.08992762844025204
1125,-0.0726848136308307,0.07219486621350023
1126,-0.06171156555461135,0.06846432032890971
1127,-0.047446717648810526,0.05286943037692016
1128,-0.028624407039379712,0.09542412039023951
1129,-0.004606728468596621,0.0826989262150387
1130,0.024931979505344544,0.07639005018313806
1131,0.06004034075529422,0.07240877645847972
1132,0.10054222908099236,0.0848952056444584
1133,0.1446664084779376,0.08354162930602115
1134,0.19016059259142848,0.057655943901714864
1135,0.2346704690356038,0.12610264644465408
1136,0.2757282352049017,0.06516780228874959
1137,0.3107146762224129,0.08433072871131815
1138,0.33685815555532317,0.08641628362524297
1139,0.3512753008243153,0.08487358294637766
1140,0.35239889353058573,0.11767489954629876
1141,0.3406968392671438,0.03592196475229689
1142,0.3172906601060108,0.06842044087536994
1143,0.2838590972545881,0.07503255905589126
1144,0.24263236339963423,0.13635879675192802
1145,0.1963001934201176,0.10824618860251053
1146,0.1480278644873458,0.06359542269362278
1147,0.10133195024188768,0.0671977707580199
1148,0.058224068856091146,0.11867688804063962
1149,0.019947162849520545,0.07164521310218087
1150,-0.012676444104397406,0.057798039582522935
1151,-0.039324354547735654,0.11828726820316904
1152,-0.06017413285119005,0.06460027857767976
1153,-0.07590330521407912,0.09378843209670733
1154,-0.08767354294093241,0.11592975903160681
1155,-0.09642106075423497,0.10119795994135224
1156,-0.10276988467316084,0.12008154119664553
1157,-0.10734544208005327,0.04627430437121205
1158,-0.1106533241166211,0.07499259734156848
1159,-0.11307928568394204,0.06067070713024007
1160,-0.11488924544246151,0.04309700321131066
1161,-0.11622928581199217,0.05908760505658526
1162,-0.11712565297171545,0.052363201619979795
1163,-0.11737857688676676,0.07018779068482049
1164,-0.11695892179010299,0.07513292958353175
1165,-0.11611686539980572,0.12794064391225074
1166,-0.11507085502286432,0.12132167704113046
1167,-0.11393407175366954,0.1487965824608993
1168,-0.1127118527406018,0.09324054556901275
1169,-0.11130997226931189,0.08171416868200743
1170,-0.10953252449345567,0.04771577726386527
1171,-0.10707532630557806,0.057099268738161325
1172,-0.10352574737864847,0.07767405816514535
1173,-0.09836271016605867,0.06338601439025258
1174,-0.09102621198292855,0.0615315846967142
1175,-0.08003235534222031,0.12737807470898027
1176,-0.06222837084961826,0.04520119224094636
1177,-0.035751247118109244,0.071025456035122
1178,-0.0003210142225371546,0.07024311596771762
1179,0.04275925630039633,0.12519052124870073
1180,0.09065658797808421,0.10607659838707617
1181,0.1376166909635667,0.11419671509358334
1182,0.174716067079715,0.09204573979952889
1183,0.1954229537433984,0.08370116657088958
1184,0.19619859096391576,0.05492861048800193
1185,0.17643893450950704,0.07063254554516558
1186,0.13981850306271795,0.08450146818535674
1187,0.09458083680857299,0.10354394164906601
1188,0.04802636065793341,0.08991468023250362
1189,0.005868351979424542,0.09237188682088784
1190,-0.02716386051864576,0.048250545222031906
1191,-0.045498443608606755,0.08024699103660186
1192,-0.06085224397136513,0.09349497927740681
1193,-0.08435185286930696,0.05238163379415504
1194,-0.12171241947371945,0.0901612743477504
1195,-0.1732231058595567,0.11073848006684273
1196,-0.23373942858106503,0.07915547430794104
1197,-0.24840082740843264,0.060156371737104926
1198,-0.06756177196829398,0.1073476631590936
1199,0.3484362409691,0.07250931628335854
1200,0.8643228769163316,0.10204706118220219
1201,1.0546528604233727,0.10488595546602116
1202,0.7318873502246777,0.08655044508048867
1203,0.17225615758356835,0.12068657571925405
1204,-0.25101419134225844,0.13418035423535937
1205,-0.39868023858269774,0.14162117250421558
1206,-0.3400826936562477,0.09204822302516867
1207,-0.227854579792693,0.07724638538503659
1208,-0.1522683961799957,0.04874133001062487
1209,-0.11913833294544694,0.12376574491784373
1210,-0.1038906797475161,0.15582341540810293
1211,-0.09595986270923637,0.13752129749117759
1212,-0.0877782835946752,0.056233767197071086
1213,-0.07454209195199832,0.07883879739009887
1214,-0.054211710474150326,0.08118510424424816
1215,-0.02753790835595149,0.08585089139904602
1216,0.00377423132148905,0.09595427112017953
1217,0.040777976869689696,0.08398719414194272
1218,0.08291125631460428,0.06469707254783369
1219,0.12900292010140132,0.07413202119855034
1220,0.1773241717270001,0.09535066945171543
1221,0.22558856774007202,0.07759968332719631
1222,0.270952017741047,0.04706509951301654
1223,0.31020067027023923,0.10085570946543367
1224,0.3406671237532857,0.06207504864154163
1225,0.3598493343274131,0.06517394673714738
1226,0.3661966998986266,0.0835460330006757
1227,0.3591969324417829,0.09233480327006759
1228,0.3393750226919206,0.051842014073597516
1229,0.30829819739620573,0.07334666005146455
1230,0.2685381543344346,0.1103187680886507
1231,0.22278350219773643,0.10859496619112295
1232,0.1742513296171683,0.04614834477242288
1233,0.12589762945634397,0.041502301944088923
1234,0.08006833110057289,0.09187351474619213
1235,0.03851854145452188,0.0764791415522561
1236,0.0024262999350724212,0.03358695392856005
1237,-0.027614027840272535,0.10643161079162342
1238,-0.05123226511360818,0.08099053497995486
1239,-0.06910038111138282,0.10445381924044321
1240,-0.08213443081291705,0.0674992701667001
1241,-0.09115808265758302,0.08003540393309726
1242,-0.09690261854479211,0.0670851231553787
1243,-0.10000693383399865,0.10134009944104024
1244,-0.10101785887925407,0.08855846923246526
1245,-0.1004227394844557,0.09799730069177841
1246,-0.09867743682128742,0.03055636268020312
1247,-0.09615202166407848,0.06038006640041229
1248,-0.0931241802453422,0.050699370802759096
1249,-0.08978235785045237,0.08145127309750366
1250,-0.08620956420582135,0.06513912145468362
1251,-0.08244186526835379,0.051920524386020295
1252,-0.07871224013433982,0.06472257561026241
1253,-0.07519757451334856,0.052691216565791524
1254,-0.07199234294668913,0.08779481669080087
1255,-0.06908008889349561,0.03619621993280036
1256,-0.06630439762654898,0.09855841320277316
1257,-0.06341973434010173,0.05413926140489256
1258,-0.06009836196050039,0.09541363173677306
1259,-0.055930341146183636,0.0635424532954481
1260,-0.05050738786293249,0.08653918211121031
1261,-0.042464708229785104,0.026374490690820478
1262,-0.029331826761338785,0.04948474513002824
1263,-0.00925893120874648,0.10239048827765038
1264,0.018906903269773578,0.10674918946274735
1265,0.055608711719105766,0.12353015625834095
1266,0.10073688681650708,0.08757227127832083
1267,0.1507198402343278,0.06378969445668708
1268,0.19711951931815225,0.06520061332007801
1269,0.23290775599134983,0.05077992986446935
1270,0.25290887608042617,0.11527535873054585
1271,0.25379658141804007,0.048039458097484576
1272,0.23419367888629064,0.06410603397257424
1273,0.1980024064053631,0.06463580714916725
1274,0.15345941154311046,0.08438218105887005
1275,0.1076076535939639,0.08647478982369161
1276,0.06595696872946606,0.07592535061136263
1277,0.03245407198224046,0.08126907904842491
1278,0.007887482164639054,0.09408394485695261
1279,-0.007422183380374111,0.08349657161271261
1280,-0.01834917708172668,0.12106498273734773
1281,-0.03727856663746026,0.09798725404328394
1282,-0.08354461444007474,0.06669391612633546
1283,-0.15434239358477284,0.06627961495543085
1284,-0.18273744359353844,0.05471887518499575
1285,-0.05608861281805848,0.045473996444924523
1286,0.314567022340147,0.036694471739341046
1287,0.8355582823036126,0.03894987817442088
1288,1.1394295169182396,0.04773285566053017
1289,0.9579368249833592,0.08568812937138579
1290,0.4164600547197499,0.11171449140168205
1291,-0.06614687770240482,0.10194467662366327
1292,-0.2743507734054355,0.06244451842195273
1293,-0.25083137860727706,0.057715887784514856
1294,-0.1346824273153816,0.04934462199600745
1295,-0.04625899574506351,0.04321866929085165
1296,-0.0085234584846865,0.09039240837006772
1297,0.005358042006901849,0.10797992347277559
1298,0.014932690043415924,0.0898710571915725
1299,0.02646199736554099,0.03921261841948697
1300,0.04167837804675583,0.07735856927287252
1301,0.06113602922832274,0.0672722393090129
1302,0.08566406353044076,0.08073751963192852
1303,0.11564752694828827,0.05831235860671965
1304,0.15107657732978358,0.02155784221984357
1305,0.19175983259574295,0.08794844021160955
1306,0.23694171457666993,0.13003740080402668
1307,0.2839637047090003,0.0474858840842116
1308,0.33012875947573045,0.05635029160598796
1309,0.37284769136544454,0.05331366686489343
1310,0.40963465852794373,0.06268118515898244
1311,0.43810931141573256,0.12158229118921234
1312,0.45599962826831536,0.1033556020787838
1313,0.4610992346749987,0.07555925127760942
1314,0.4510445219224523,0.1280586748486046
1315,0.4278292107755819,0.11323040272728532
1316,0.3946266560678953,0.09576670615505077
1317,0.35435951437173263,0.12637821953908543
1318,0.3097021213498562,0.09803048663672673
1319,0.2630804917554512,0.09882096254495552
1320,0.21667231943212442,0.12172536193667187
1321,0.1724069773139059,0.052377830613652816
1322,0.13196551742524035,0.07335347076479765
1323,0.0967806708810169,0.08005382212293442
1324,0.06803249053593931,0.06372562817315548
1325,0.04601267867529474,0.11312747619624872
1326,0.029733706205207898,0.07922347835398917
1327,0.018179462536042374,0.1259919809858388
1328,0.010431919760790264,0.10778792151567054
1329,0.00567139972908497,0.06607218325774085
1330,0.003180569691887384,0.07031243478731947
1331,0.002343602908110202,0.10041803872499547
1332,0.002642851979773732,0.10245638479576857
1333,0.0036587521915254777,0.04710725388392112
1334,0.00506982151064192,0.037375108208598226
1335,0.006658740558825666,0.11391778345788771
1336,0.008330837769700838,0.08008830642656936
1337,0.010094311063662265,0.10350663869303123
1338,0.0119456924558036,0.07298101120243429
1339,0.013803445655181138,0.11460936770337676
1340,0.0156346672109256,0.09311537196479157
1341,0.0174648292423719,0.08443763105104354
1342,0.01937777943905687,0.039124076910575414
1343,0.021515741060720434,0.11512050218034141
1344,0.024079312937304295,0.05284873675300897
1345,0.027315751183437407,0.03871630400574486
1346,0.03140254644169563,0.13793026953821982
1347,0.037568532628345815,0.06617983131851941
1348,0.04757368765642947,0.1022005731361416
1349,0.0630190151593076,0.12465764989997852
1350,0.08534483728613687,0.10130064358323844
1351,0.11583061242591908,0.05287611684008801
1352,0.15578399787186603,0.10698601117646114
1353,0.20281648665421614,0.12454788838330579
1354,0.24967093233618862,0.11152043400889615
1355,0.2897007257050536,0.04252022064706402
1356,0.3171883877963587,0.08769205593493985
1357,0.3272895120517696,0.04528933238428384
1358,0.31596039708710894,0.04456344105271866
1359,0.28335301593109324,0.13730516486015892
1360,0.2384200938227917,0.11659892457329663
1361,0.1895160516817959,0.12014017452131712
1362,0.14297753928800896,0.03811552468173194
1363,0.10312343528164605,0.125000409525817
1364,0.07225484716322876,0.033987927199878816
1365,0.05064410451329121,0.07606943635569936
1366,0.03899736485002652,0.1301608261444481
1367,0.022817257879366747,0.11624930723498524
1368,-0.01704716428077093,0.062430580749843916
1369,-0.08047508368904452,0.04687601413090528
1370,-0.1505811031271179,0.0767239765162604
1371,-0.10915295690656751,0.07891647735126761
1372,0.18217264695925356,0.04938179135378326
1373,0.6739624849001775,0.09754338311160024
1374,1.1167489840300682,0.08788301248975446
1375,1.1287670714105134,0.12772118579241162
1376,0.6672346873570915,0.0742914985234826
1377,0.13539040056089027,0.10823722360085189
1378,-0.1610736867383106,0.04376494511925342
1379,-0.1878157272742682,0.1110520566840926
1380,-0.08110671571824195,0.10528687891472038
1381,0.015951468571707476,0.08501654263798362
1382,0.06014692857143352,0.12694412657829401
1383,0.07570972819904598,0.10337231882382897
1384,0.0832088816317689,0.046896055894533974
1385,0.09323151732381221,0.057034241475805325
1386,0.10721498360874764,0.09279432303433043
1387,0.12516801804994293,0.1455219329621162
1388,0.14823505260426725,0.05347571696169741
1389,0.17684617881807962,0.08342892073209045
1390,0.21111432470567978,0.05222004507143375
1391,0.25103282310350666,0.05078899314722498
1392,0.2946633229351981,0.12209154446265227
1393,0.3395660371564939,0.050008617953410835
1394,0.3832159463964317,0.1039351307312017
1395,0.42300671160352193,0.14039962074033197
1396,0.45627423298271463,0.10445521486611335
1397,0.48028094759746953,0.08740249619527767
1398,0.49220324348166006,0.10927883721488997
1399,0.4898357880337497,0.07558938574800629
1400,0.4739358348140148,0.03228656440320172
1401,0.4462646975259859,0.09000751135008847
1402,0.40891278649186297,0.09854463876283391
1403,0.36429960865251493,0.0730310827009658
1404,0.3151737675674802,0.11399575369694831
1405,0.26460517883856305,0.019864726075851175
1406,0.21593265421957367,0.044219938852898516
1407,0.17219114386405446,0.026282319984577942
1408,0.13426532261748392,0.04699405680954379
1409,0.10246601596723258,0.0556248148605859
1410,0.07681867161636172,0.06204995755444062
1411,0.05705087357003239,0.14132553496379124
1412,0.04259903127696874,0.07372266516370853
1413,0.03261005394474794,0.03367512592482449
1414,0.025941350539800644,0.053488761709412684
1415,0.021314754031460863,0.0725038057031635
1416,0.018211255769745825,0.09256834016651731
1417,0.01620793047443212,0.04660117623988597
1418,0.014936416321213147,0.052146904855415135
1419,0.014120193545870345,0.06009258539620174
1420,0.013574584444273676,0.08081930569097952
1421,0.013206753372381507,0.11697441806461646
1422,0.013015706746240837,0.10589754558265886
1423,0.013112207385621924,0.041786744193500126
1424,0.013470303603637815,0.07110680179033348
1425,0.013992215084012945,0.10575228745222491
1426,0.01462103126097085,0.09891036113058149
1427,0.015370185790024806,0.11708517481173411
1428,0.016358673153258816,0.042301869611384345
1429,0.017811418164438455,0.06143414501128257
1430,0.02006041562668592,0.02571955963901447
1431,0.023492080273633125,0.05618860939292787
1432,0.028989662206108394,0.06289741261518406
1433,0.039065846676011304,0.08523392205412543
1434,0.0557806862253895,0.1330650909290241
1435,0.08045412286007482,0.047407812504709566
1436,0.11370645851243799,0.06166939153765803
1437,0.15560582673382922,0.054568675814520705
1438,0.20272925701267805,0.037391342598987645
1439,0.24608023449112543,0.11587080531898727
1440,0.27812839564102865,0.12108514029790834
1441,0.29341219099908533,0.10149746714328228
1442,0.2885388851668686,0.08636742960387733
1443,0.2624101334992067,0.08916567142290624
1444,0.22045553508559115,0.0952249207736312
1445,0.1718543539089485,0.08807631511356508
1446,0.12393096345110514,0.049722372136450026
1447,0.08197620797980583,0.09852407750418583
1448,0.049272654662325756,0.07908895937066174
1449,0.03183164802970488,0.066317315172219
1450,0.017550028429591753,-0.16050400951018506
1451,-0.00976649758118632,-0.8618510646682073
1452,-0.056060109785961446,-0.5740595590111867
1453,-0.11702031326853408,0.2843975712259267
1454,-0.17736869624920673,0.6103537012950504
1455,-0.12157951012585093,0.938292942252766
1456,0.1945738574972012,0.2059494260239831
1457,0.6992688328229413,0.49973972138903056
1458,1.0827030986641226,-0.1156477625161645
1459,0.9757592946724384,0.3711030075902341
1460,0.4485787277711247,0.7288812545038431
1461,-0.042466911465948505,-0.27709837956283556
1462,-0.269142416342394,0.1774723795112963
1463,-0.24770935373990075,-0.15027215858571105
1464,-0.13407802719840517,0.11149629098561753
1465,-0.049951907549316346,-0.34103191248645054
1466,-0.018797338071219763,-0.08952051745887332
1467,-0.007454669300366387,0.7798075076700085
1468,0.00035531279906431557,0.37317277154131123
1469,0.011356399235965806,0.8747375389255098
1470,0.026057663332196918,-0.3348806467367498
1471,0.04555769611930526,-0.27338879588986637
1472,0.07051600853706037,-0.0018736979856878444
1473,0.10121576626172589,-0.979792991363432
1474,0.13786285575246748,0.7017770253901767
1475,0.18072187944692153,0.1239952254006284
1476,0.22673518251675806,-0.19297375372794026
1477,0.2726859823895418,-0.109007094670675
1478,0.31564648553473784,0.5201760528924096
1479,0.35297738861076805,0.38215592799488496
1480,0.38232787846500943,-0.3411327263251245
1481,0.4016356321337958,0.14087873294770883
1482,0.409126816842416,-0.6992947174054067
1483,0.4033160900051127,-0.052795977013281356
1484,0.38302806303212816,0.7576399363465135
1485,0.35006361943322223,-0.14471038356012622
1486,0.308290015699628,0.9373659389685354
1487,0.2611834825958921,0.16846266151173228
1488,0.21179541768620266,-0.2770400278308067
1489,0.16275253326172878,0.2661910388344419
1490,0.11625699911980948,0.714439156564827
1491,0.07408877582502195,-0.06520935288854747
1492,0.037605234896153604,0.4325681423435112
1493,0.007751100908603172,0.34585318362151
1494,-0.01531749955190571,-0.05035253800889321
1495,-0.032607836137584105,0.3608480495983994
1496,-0.04517176999654414,-0.32255622836881587
1497,-0.05396715400238348,0.030198728786976083
1498,-0.059846009991453945,0.11489848321094334
1499,-0.06355403013879257,0.5936549790589217
1500,-0.06573057695811954,-0.39910979091315774
1501,-0.06690868330184162,0.3267677631186135
1502,-0.06751505236104959,0.2922491874293881
1503,-0.06787005766551855,-0.681699481623701
1504,-0.06818774308370897,0.6434643754041939
1505,-0.06857464963894298,0.40492137626314906
1506,-0.06900199841269568,-0.7758296949664427
1507,-0.06924090591683796,0.04749045113688713
1508,-0.06926692420942927,-0.18535157379000516
1509,-0.06941841118349903,0.2138259194003023
1510,-0.06982382044744524,0.17256056020024568
1511,-0.07038504030708775,-0.2339715753254533
1512,-0.07077756797789547,0.6764141690112497
1513,-0.07044943936720575,0.764326844423908
1514,-0.06862116358440985,0.7732208170221871
1515,-0.0642869924649622,-0.14365381849207953
1516,-0.05627438420896262,0.6904306175277106
1517,-0.04326290897633193,0.6079535349090006
1518,-0.022030626167257636,0.2318935311456514
1519,0.00916432992141758,0.08592050762210941
1520,0.049598706234198923,-0.24247394286411844
1521,0.09608413095693959,0.053087271484107496
1522,0.1429671135168409,-0.544704647315455
1523,0.1826919272253857,0.11131229119603239
1524,0.20695788325687184,-0.4060914946507735
1525,0.21040043014547916,0.3804867507661053
1526,0.1922584282973867,-0.08902048640193576
1527,0.15618862366773328,1.0534898697160127
1528,0.10959994687717554,1.0497023803080394
1529,0.061136911237653774,-0.17644340327167768
1530,0.017287983738567093,0.9722431926047261
1531,-0.017854890960948767,0.23387409454818497
1532,-0.043449630899541625,-0.12497368800467018
1533,-0.060137310150648146,-0.390639718059004
1534,-0.07438003476579237,0.12189744735645038
1535,-0.099822449001169,0.36628683972796566
1536,-0.16121192365312415,-0.33425857603881076
1537,-0.25322286408762845,-0.040351521024040216
1538,-0.21209369770000527,0.46644171389103767
1539,0.050261365327441805,0.32216781618223167
1540,0.5051138527022991,0.04718917933976263
1541,0.9633866413764978,-0.711472310040372
1542,0.9930212598572494,-0.6611332880464353
1543,0.5333593909841535,0.16797439490604005
1544,-0.005617470023845045,-0.052257990712252046
1545,-0.3251840619773525,-0.5148333291064648
1546,-0.374811829898578,0.7934382832225239
1547,-0.27512579146199434,-0.38117974026948714
1548,-0.17066084042826432,-0.47400586032787756
1549,-0.12010326305956928,0.33870175977449546
1550,-0.10183806622264881,0.07389615235470147
1551,-0.09416247576084112,0.028847697277235223
1552,-0.08566500616314728,0.04546916695432362
1553,-0.0731338104662128,0.08636432536145824
1554,-0.056823931876338406,0.07054175828024814
1555,-0.03547620239454488,0.12629298571146969
1556,-0.008514977350161478,0.08255009381635192
1557,0.024187584024129447,0.07980108486346746
1558,0.06232571027088785,0.09643848976746255
1559,0.10577846227545874,0.03693434560887894
1560,0.1526880144688568,0.04789020048783339
1561,0.19964965611785104,0.082642655114043
1562,0.24360746921724796,0.04026494684776053
1563,0.28185927080164086,0.1086074745645391
1564,0.3120566129454102,0.10314965507817564
1565,0.33220460630327264,0.05612660411155729
1566,0.340648912013497,0.0730928222125208
1567,0.33606683795532344,0.0941210616405918
1568,0.31736946344054884,0.05796420204094174
1569,0.2864913465964188,0.06819665698830378
1570,0.24698184687580285,0.03712173102970667
1571,0.20202699892577866,0.048049436830396704
1572,0.15444580374262734,0.11704532025884838
1573,0.10668998072593093,0.09991808331397088
1574,0.060843900672473736,0.06402306146289079
1575,0.018624910758132735,0.06722631962550564
1576,-0.018585692256320317,0.07163078354917285
1577,-0.04971468032518257,0.0487364438470459
1578,-0.07424288484753513,0.04704772325421439
1579,-0.09291930038202156,0.11517605545151448
1580,-0.10669981488724628,0.10602866007252074
1581,-0.11644389027858529,0.1228077784759417
1582,-0.12291456242818652,0.12281545569514463
1583,-0.12677844116496942,0.13042702935068562
1584,-0.1286057102746238,0.02943572928238978
1585,-0.12887041762048024,0.12637076879447157
1586,-0.12798741640386718,0.03969672909306438
1587,-0.12634861574175607,0.07912917498430098
1588,-0.124258107370834,0.10292719991838832
1589,-0.12192355698455881,0.07343389439845271
1590,-0.11945620423316104,0.03836764751104724
1591,-0.11687145623194758,0.0363049862267146
1592,-0.11406187959190485,0.08790851481907255
1593,-0.1111980323796806,0.06524070258351976
1594,-0.10863283948707655,0.0852613590526904
1595,-0.10653044151749651,0.06768150400239582
1596,-0.10482677262520187,0.10812381267602872
1597,-0.10318832093915717,0.09934217221526019
1598,-0.10107938864222532,0.09567306035240529
1599,-0.09777208114091723,0.06530583544055074
1600,-0.09234630706539486,0.08580536838917327
1601,-0.08388063705026957,0.11544437019458542
1602,-0.07040508842084987,0.06398215427673724
1603,-0.04866392512346712,0.11491922992640231
1604,-0.017254470316063145,0.09050272412911584
1605,0.023199741554118112,0.03377163941024332
1606,0.07001592154681177,0.06799368443420634
1607,0.11841916912075354,0.10203267243176153
1608,0.16155719622892126,0.03765481937075779
1609,0.19114655167105224,0.0670350323476452
1610,0.20168115837345635,0.08085337068172857
1611,0.19122795373553056,0.05084779741948263
1612,0.16166976390752336,0.11058455217747742
1613,0.11970301221744717,0.11530765771786072
1614,0.07270548433129471,0.09367726105966014
1615,0.027479875024801235,0.10899785682336822
1616,-0.011168249816098333,0.08876157398055258
1617,-0.03997977755601698,0.09718341296995527
1618,-0.05841244804236561,0.039610628828046356
1619,-0.07117807634290955,0.07950124038804332
1620,-0.08824565849189944,0.0864892708024145
1621,-0.12549825284582553,0.10104136405852766
1622,-0.19403811331506554,0.08493263990954042
1623,-0.24617929785288273,0.03603483651555102
1624,-0.17234449577575167,0.08450197287868064
1625,0.14491467276464207,0.08016363237847685
1626,0.6544448204984749,0.09049954809079856
1627,1.0453967106455588,0.08035020046349547
1628,0.9511907969091583,0.05639854149059482
1629,0.4412265481005787,0.12483811088474815
1630,-0.07124536332470106,0.11228706094226869
1631,-0.3426100059730798,0.057278605124758485
1632,-0.3587553980350143,0.06809163030267135
1633,-0.25015641086750556,0.10844353236824925
1634,-0.1489007162792538,0.12595338710479867
1635,-0.09870564924334307,0.07340998016406919
1636,-0.07873602816331003,0.09852048289023073
1637,-0.06990813690837182,0.12186075916178526
1638,-0.060831458377966434,0.0575542906876745
1639,-0.04676137969071203,0.11936709732515277
1640,-0.028899084367013092,0.03446468461896331
1641,-0.006735918602953849,0.051750318905985596
1642,0.020779134496677946,0.058294692496991575
1643,0.053885253998626294,0.07202265861321591
1644,0.09230998396984517,0.0503080861474704
1645,0.13526923222347031,0.12265541509852423
1646,0.18179111936897344,0.05517915404874216
1647,0.22962984419276727,0.03462212805420937
1648,0.2754905190839818,0.08640836383693683
1649,0.3164568791837943,0.11027576478437594
1650,0.3500023932648947,0.09413437893560488
1651,0.3739899771241823,0.06882174507360742
1652,0.38666686492723545,0.06645953234298937
1653,0.38666213696982293,0.09630443137034617
1654,0.37258446740834,0.028886035893891986
1655,0.34627880024225294,0.013631675129661147
1656,0.3109789355310288,0.09316881055869022
1657,0.26960662507625394,0.1037179870442048
1658,0.22479848868274332,0.05736667103139913
1659,0.17891387877608256,0.07950226123456203
1660,0.13403488040250192,0.04894778701995228
1661,0.09196631122900557,0.1377318200669841
1662,0.054235721543245255,0.05464053578731863
1663,0.022093394253628666,0.11169328169203435
1664,-0.0036941298995381176,0.06235171395697253
1665,-0.023717152172550916,0.09776308142792137
1666,-0.038919339008020276,0.014148106866768033
1667,-0.0500798620958579,0.07930306561582877
1668,-0.057885084294043515,0.054021108821564065
1669,-0.06295214198590453,0.03431879719671427
1670,-0.06582894508009375,0.11861753662495558
1671,-0.06699404885966968,0.08802316630518792
1672,-0.06685224354245034,0.0790856202766366
1673,-0.06573344142655568,0.05593534903339545
1674,-0.06386527581230428,0.11028019062486955
1675,-0.06125152709950958,0.10953634018823946
1676,-0.057927752246193016,0.08661150445248265
1677,-0.05406122173499476,0.08111930013128354
1678,-0.04983325618458789,0.09870716259201874
1679,-0.04539892982668796,0.09534030340142273
1680,-0.040887069792932586,0.05420726956544249
1681,-0.036400256114878994,0.09254428333903998
1682,-0.03201482172401029,0.02431200169299721
1683,-0.02778085245172786,0.06118586380401107
1684,-0.023731941147958003,0.10521589813056198
1685,-0.020062704095409972,0.11577514307680636
1686,-0.01590605499666245,0.12729769431300755
1687,-0.009822258730332191,0.12399376497962168
1688,-0.00031341196587747824,0.07145974398305063
1689,0.014129014835782425,0.08151859629704138
1690,0.035024170014286066,0.07008011137205392
1691,0.06390179273536967,0.0522601115359356
1692,0.10251938889852859,0.04735426157379635
1693,0.14940046927997652,0.05847508747497073
1694,0.1969698085962156,0.13081081907628583
1695,0.23842454683841305,0.058961940006475706
1696,0.26823504013262595,0.044876677286482876
1697,0.2820365272953047,0.0954226036659319
1698,0.2767198196302844,0.08020097730168882
1699,0.25104443051567604,0.025813977072010705
1700,0.2110462478904072,0.11179829475509233
1701,0.16549250499182705,0.14292009521341337
1702,0.12113006122365337,0.04818526877500145
1703,0.08262066448282257,0.033643182632869646
1704,0.05254095115960164,0.0591204849187785
1705,0.03138244613752687,0.09078613256120435
1706,0.017626437879755034,0.056723759134154436
1707,0.004188687399292668,0.10970992699479025
1708,-0.022215076239066336,0.09535978868917204
1709,-0.07889395712316168,0.08801692207630063
1710,-0.14896401350876073,0.09102109974277245
1711,-0.14546022329155006,0.05244018933389598
1712,0.04424069224829961,0.0771729753217303
1713,0.47251746414699836,0.0459203586563219
1714,0.9801810535667737,0.03317434677254326
1715,1.165374141871814,0.086471593142499
1716,0.8507249970910209,0.06841263764073204
1717,0.2757924653736608,0.07181498062743723
1718,-0.1328266676184818,0.09823733944827358
1719,-0.266416567909327,0.041046246477329816
1720,-0.1983707095682885,0.04867020683364305
1721,-0.08333451889039015,0.1011292073678079
1722,-0.010424954612461743,0.057210653895120846
1723,0.016226214696293595,0.09019038632339318
1724,0.027724216093103635,0.057794908353414026
1725,0.03726004295457105,0.047472564654470535
1726,0.049866052962921174,0.046740676179608094
1727,0.06606234377164974,0.09050666989949648
1728,0.08687526877757835,0.06272473777951126
1729,0.11292557924384546,0.04289785396317623
1730,0.14452345435113662,0.0914043035924964
1731,0.18183375340321434,0.1124983042484267
1732,0.22424566634624485,0.07897238487011393
1733,0.26983124853663126,0.04495123776489354
1734,0.3164364640089695,0.10149130626035054
1735,0.36171842768534335,0.046606704129904156
1736,0.40314644153127904,0.0809336547238137
1737,0.43800879978205426,0.09695637008410553
1738,0.46340853521850295,0.10742091400134342
1739,0.4764184520592226,0.11965747216170783
1740,0.4759754886412083,0.0966818009308103
1741,0.46268245546371994,0.07117050275892417
1742,0.437701833381405,0.11651955177801636
1743,0.40273431420103445,0.06519387413490277
1744,0.36001880068143394,0.12593027760306197
1745,0.3123324065335816,0.05784674100443246
1746,0.2629875079465356,0.09817361091863867
1747,0.21558481356718381,0.08007654782978059
1748,0.17209113301873635,0.10358524513976958
1749,0.13364365438465273,0.08036953444348284
1750,0.1010033796753689,0.09052865733486687
1751,0.07449606762332915,0.08817670611571993
1752,0.05401285518633587,0.04705777150672308
1753,0.03901293628024532,0.06485349818578105
1754,0.028521352739153558,0.11646670899140536
1755,0.021284938683708603,0.08731375945574678
1756,0.016620142706891817,0.10184515109315655
1757,0.013873958987157155,0.04793654690327524
1758,0.01248552347404891,0.0373846122537358
1759,0.012006788991787223,0.09306727666947759
1760,0.012102348077585829,0.04732393118109709
1761,0.012549432981651246,0.05268546809067997
1762,0.013237915667185294,0.10566849157130362
1763,0.014156689158469989,0.057907434413757224
1764,0.015261008309776386,0.05155039912921715
1765,0.016489120458789842,0.06534480241704615
1766,0.017819187820118258,0.09114370398983507
1767,0.01923568892665257,0.09615496784251573
1768,0.020745132847170916,0.10482033048567176
1769,0.022398040820750253,0.039702330253697724
1770,0.024289228593002168,0.04229021336832396
1771,0.026557806416074695,0.10016028935461994
1772,0.0293442713124671,0.12611961083830892
1773,0.033486918415509985,0.12323653385133708
1774,0.04049885466637008,0.07476081442747443
1775,0.05192906709123045,0.03186987258045719
1776,0.06935602998450552,0.11353009712845283
1777,0.09441771410268762,0.09490290289718432
1778,0.12894146674993132,0.04268109343740278
1779,0.17226234646931513,0.07371115048484597
1780,0.21852771949691946,0.09274112652551741
1781,0.2616293251923301,0.044943553595455196
1782,0.2956201280138277,0.07113830166129562
1783,0.3147143175184205,0.07551252794281517
1784,0.31326843693823253,0.12858419657997194
1785,0.2892170807502095,0.08309758388610278
1786,0.2500331634200565,0.10414309913785598
1787,0.20353265976853327,0.11048725530604259
1788,0.1561531664019478,0.06554400240201562
1789,0.11295826089796186,0.057787966827166665
1790,0.07763758964021474,0.10934519694075133
1791,0.056519645102108954,0.06872825030074409
1792,0.05773690835896174,0.12957773596399239
1793,0.05163961811576489,0.08435653837548152
1794,0.02286205546404323,0.13708892807301085
1795,-0.02297570056569641,0.0925743921518299
1796,-0.05926946378665829,0.11252985209786402
1797,-0.03845329133420806,0.07066921068724566
1798,0.1080066265956185,0.07687572623978656
1799,0.46962946207381545,0.10396069050905814
1800,0.9834506096711577,0.07052062608269084
1801,1.1837358794482167,0.07717315434989769
1802,0.867421896426585,0.058219901674631806
1803,0.3124416441423947,0.05053710760002283
1804,-0.09352414514606372,0.05128548335640663
1805,-0.21990365107168758,0.07017462703706986
1806,-0.14929727688020888,0.11123667079681167
1807,-0.03743007280021989,0.051445870476904375
1808,0.028378664446285187,0.07355712514689568
1809,0.05022199558128773,0.05974812108409468
1810,0.05887391730887528,0.1211364738746443
1811,0.0666614816296225,0.07510446811001781
1812,0.07771788682362724,0.051691203416410224
1813,0.09275613450395287,0.050780198183427896
1814,0.11277420839628817,0.05672918800039831
1815,0.1383849960845762,0.05349042378943539
1816,0.16993774501879544,0.05620153068151518
1817,0.20765218517709022,0.09457895264293703
1818,0.2500262534723461,0.10295732925575415
1819,0.2949805186520196,0.060976632358145814
1820,0.3402266617411382,0.08397283734442347
1821,0.38326747604242356,0.06812223772192803
1822,0.42139686713617985,0.10459140596778826
1823,0.45169985288034936,0.10064199300019226
1824,0.47105256341053703,0.052720330765960374
1825,0.4766187806974118,0.055731121563202264
1826,0.4682606146052733,0.11422825107842834
1827,0.4471459620627341,0.12301797756753029
1828,0.41490851899633696,0.08522012542056111
1829,0.37362520644498254,0.0974540704648719
1830,0.3258152656550159,0.057005694833230626
1831,0.2744402580803206,0.1140331379971255
1832,0.22290397741717732,0.07419031510455013
1833,0.17476705828844583,0.06849549515597755
1834,0.13161073885967542,0.05489879278147676
1835,0.0941130721642678,0.08635472932112075
1836,0.0626480620698967,0.04208071711117706
1837,0.037259498887806095,0.07652034827656153
1838,0.017661415635110263,0.04230040905975227
1839,0.003217897324666928,0.07839393642824455
1840,-0.00705787496446828,0.0836723969014416
1841,-0.014382078357465708,0.12309581231330194
1842,-0.019341252353083507,0.04811929366457046
1843,-0.022443843991569137,0.0963002871581845
1844,-0.02414117935691372,0.0667218498599745
1845,-0.024779360231849137,0.06965494484605497
1846,-0.024601384014365027,0.07697677150706415
1847,-0.023803861298856498,0.03053181955572294
1848,-0.02254307128968339,0.07018708684527468
1849,-0.02088700357406638,0.017220745739274308
1850,-0.019015527031858236,0.10985465985908857
1851,-0.017112071633706573,0.10375137842228634
1852,-0.01529067512635167,0.0825563547908204
1853,-0.013592514614460366,0.12066614935539008
1854,-0.011982941390990098,0.06218618580473685
1855,-0.010357250624390574,0.04262685732094577
1856,-0.00854000271168738,0.03570746025828302
1857,-0.006260450329049058,0.07646312757746561
1858,-0.0028467907942010136,0.10703383546204451
1859,0.0035645568180000956,0.03002760540441403
1860,0.014874715780699358,0.09510177730751052
1861,0.032816005661317725,0.08465811350507349
1862,0.05895194232158646,0.07614683551006697
1863,0.09474241947653576,0.1219005796311812
1864,0.13838136208324214,0.049514492987946024
1865,0.1835850970149092,0.05359450463670976
1866,0.22389058089174774,0.11590136331734495
1867,0.2528825140558859,0.033079198179144384
1868,0.2641915108013572,0.039961994813385485
1869,0.25250551983059805,0.0603771231982592
1870,0.221440892438035,0.11367992128701324
1871,0.17845241199623582,0.0991666011061471
1872,0.13037437581947017,0.11469634637009238
1873,0.08339940092275223,0.07332448835617546
1874,0.043073680938122146,0.07782650518352095
1875,0.013495797936491477,0.047112052127987206
1876,-0.00663510550702941,0.06943105796435503
1877,-0.02275090778260457,0.09073675129198365
1878,-0.0435608453788119,0.09146516139800075
1879,-0.08102878632033991,0.12243365011000037
1880,-0.1504477151877122,0.11179775203400719
1881,-0.20177479117988498,0.042456155109490266
1882,-0.08815173761249123,0.10379348531334348
1883,0.25439407164275346,0.08891970274814287
1884,0.7713707852512953,0.10665660242261636
1885,1.0900498006112507,0.101262095230697
1886,0.8940245205391417,0.0848157098492959
1887,0.3504008792465243,0.07479175080191375
1888,-0.11885745482952288,0.07118212170522845
1889,-0.311495406185917,0.07497377325790489
1890,-0.28152520483062493,0.13057340532684789
1891,-0.1777084103690786,0.11586622486496272
1892,-0.09520336972765744,0.12353828341030458
1893,-0.06293501671749804,0.06718213944548311
1894,-0.05269936483926026,0.04651229041947424
1895,-0.045638074773123684,0.07690365487151238
1896,-0.035023339116874386,0.08170620982614756
1897,-0.020914474648323897,0.07072643844314623
1898,-0.002024558427769114,0.0990310446961173
1899,0.022245219715600416,0.07862015312922337
1900,0.052151482267835704,0.08361800956723232
1901,0.08765926915483306,0.09189160586148278
1902,0.12869661115907954,0.0638180092086351
1903,0.17315773464314418,0.05211228352999135
1904,0.21841650404698965,0.05822331695283933
1905,0.2618423100386521,0.019625197718668
1906,0.30080085420220587,0.06480622729890118
1907,0.33272460548494504,0.10005274673947159
1908,0.35516871188790305,0.08763101934743567
1909,0.36569700517632847,0.08128609737411044
1910,0.3620827896090086,0.049719885643500744
1911,0.34472555953609263,0.07875817088339765
1912,0.3157133690776896,0.039529729981340044
1913,0.27734525215987765,0.11901745306059541
1914,0.23211431950882655,0.11022963150442823
1915,0.18271033807699721,0.04807112811735719
1916,0.13202049372269406,0.04286975238531432
1917,0.0830545551289969,0.10754860023846124
1918,0.0388085328190467,0.04658692773918861
1919,0.0008026385184738347,0.06419437325459036
1920,-0.030827169602974474,0.1101621038300794
1921,-0.056162705858530435,0.0614803508703474
1922,-0.0755301465222149,0.045729829343183655
1923,-0.08950002982891621,0.037638013390248935
1924,-0.09888725597432943,0.051808013625015865
1925,-0.10475108711498858,0.060597791860586975
1926,-0.10836586902951577,0.060111159598881296
1927,-0.11051969721196582,0.1232704701633645
1928,-0.11159912873842204,0.048206984287594415
1929,-0.11195769519632422,0.07511989608967799
1930,-0.11186923311098558,0.05331704682101793
1931,-0.11152788394559042,0.042591224551338194
1932,-0.11104809410119508,0.11336499677986321
1933,-0.1104646313814018,0.10427547053514077
1934,-0.10973270788993919,0.07252019794514378
1935,-0.10853277551601213,0.10061251344678347
1936,-0.10676175819152771,0.077319981373907
1937,-0.10486282883756148,0.07626908128547041
1938,-0.10311935589202656,0.06476347965000606
1939,-0.10157352030334459,0.12225206540010775
1940,-0.10001505385278091,0.08879063790834861
1941,-0.09798123915444434,0.08672162033342859
1942,-0.09475690965528487,0.11224442361566916
1943,-0.08937444963509851,0.03910295047784676
1944,-0.08061379420651854,0.07699854495952112
1945,-0.06700242931503157,0.09762535494697186
1946,-0.04681531858114844,0.09264779012316465
1947,-0.01775748925434955,0.052351785633423964
1948,0.022952711682664325,0.053460279408466836
1949,0.0693094379655536,0.1281590255031434
1950,0.1143596652898488,0.10028510758966132
1951,0.15214300415792537,0.10001596493919396
1952,0.17769169987889685,0.097747378566262
1953,0.18703074832625857,0.033051141271157214
1954,0.177179316940885,0.05451042938897985
1955,0.14683016209654057,0.062463959327675525
1956,0.10272891959332327,0.10361018632597761
1957,0.05427116469765401,0.07433314336159257
1958,0.008442513748647622,0.063724683340639
1959,-0.030143913575223027,0.10838901544247732
1960,-0.059238469838681494,0.10791042352597217
1961,-0.0784058774074642,0.048444813576415904
1962,-0.09139064184826169,0.06606066072767887
1963,-0.11072577969022065,0.11181215058512843
1964,-0.14889135625850744,0.11288641762327523
1965,-0.2194675666681909,0.0680044020891875
1966,-0.2821619578734007,0.0784996112462871
1967,-0.17858511584383793,0.05383267566222738
1968,0.15455832032518488,0.030795261938305982
1969,0.6547217040543094,0.09931968464110398
1970,1.0230595427546296,0.03890097508056016
1971,0.8938826978065835,0.05890859432663799
1972,0.37635264785037004,0.07244566808759378
1973,-0.1281674009342415,0.09641137492512263
1974,-0.3816428789950966,0.1176999706952808
1975,-0.39281377431787956,0.13721317083452922
1976,-0.281022146751101,0.11765837903194228
1977,-0.18427637873812155,0.12176722974977378
1978,-0.13589538950634367,0.10164523751381797
1979,-0.11997149989581438,0.11477720016576642
1980,-0.1098357501505859,0.09427102666295213
1981,-0.09908150826431164,0.1154806970125862
1982,-0.08478343380958962,0.0715539604202943
1983,-0.06639375651632,0.06088379918936461
1984,-0.04325513811548092,0.10225558742512837
1985,-0.014662366965745239,0.10446977975380564
1986,0.01952812554134249,0.07936109593345485
1987,0.05891396865309232,0.04345030522688274
1988,0.10256419952033453,0.08331007380321154
1989,0.1490537388774178,0.06589219969651285
1990,0.19677609283713035,0.053966608563615556
1991,0.24234831566956283,0.10137034394663537
1992,0.2824565543833859,0.0767740134621798
1993,0.3143883581866971,0.08156048079747447
1994,0.3360315963922532,0.07741773693939992
1995,0.3458740329106972,0.04955811693250187
1996,0.3430047459161058,0.12676773230376812
1997,0.32694354243460255,0.05394037792635972
1998,0.2983063339111566,0.11346674448964944
1999,0.2604274611347721,0.08406851709760728
2000,0.21656245231544227,0.08255218478579072
2001,0.16961233698303788,0.04613837240696018
2002,0.12212364598741976,0.03036619615025652
2003,0.0762884114983076,0.09256828994285993
2004,0.03394416700541289,0.03555633836160677
2005,-0.003426052681688882,0.13280531066809917
2006,-0.034692575497857245,0.10876234326171104
2007,-0.059187705981798164,0.10071083829973142
2008,-0.07759203255240928,0.08627870338719743
2009,-0.09092180803407106,0.045152844542229696
2010,-0.10010425200857191,0.013509431610043716
2011,-0.10597755076166865,0.05029247101238633
2012,-0.10929085728311648,0.08821294225180784
2013,-0.1107042717054261,0.06189956936952463
2014,-0.1107864540912651,0.07285424666869092
2015,-0.11001233529766853,0.07554475411888593
2016,-0.10876727032924663,0.12115190945308883
2017,-0.10733803564087215,0.13809530064359432
2018,-0.10587798239535556,0.04439926537512812
2019,-0.10443488913131012,0.10470418245737806
2020,-0.10287385940950318,0.13609156080350776
2021,-0.10128802670981671,0.11741391154821423
2022,-0.09981758810630502,0.04250544205276717
2023,-0.09850728927516977,0.07277579819369975
2024,-0.09730642449476495,0.09705079762110762
2025,-0.09606883664559535,0.10190180098832383
2026,-0.09455291721031403,0.13412124332266961
2027,-0.09242858997206249,0.0861797978061357
2028,-0.08930589973768478,0.04633945291857294
2029,-0.08471073740008385,0.10861871478896948
2030,-0.0782894041640006,0.06285263209837806
2031,-0.06790346769615466,0.06742484676295157
2032,-0.050798537349130896,0.06551813138172176
2033,-0.02540582237172162,0.0990782408401129
2034,0.008649234249040667,0.05009679670763344
2035,0.05054313286035226,0.0791467519744899
2036,0.09829927893437038,0.08260690378461182
2037,0.14708345897169683,0.11658511870585128
2038,0.18811601313245244,0.06370919514452181
2039,0.21454720345003025,0.06666135106075427
2040,0.22217622920474048,0.05645392307172041
2041,0.20945101427996393,0.10544593966156265
2042,0.17796117767801098,0.06025870426411672
2043,0.13502476361257007,0.11995526230724575
2044,0.08838092525164151,0.09829155134895806
2045,0.044141070828439814,0.08891510439244667
2046,0.006788863641271168,0.044044976636745
2047,-0.02125626518914329,0.09767077617753227
2048,-0.04029282244920011,0.04251203366447429
2049,-0.05350406340831261,0.03687855180347293
2050,-0.06951482373450206,0.10496727543883054
2051,-0.10251930791593977,0.07155271392720165
2052,-0.17806903573906205,0.04856184612266081
2053,-0.25000583851667285,0.06634334409059267
2054,-0.16433351326663073,0.053944779493263574
2055,0.1400420059661197,0.12541963428762642
2056,0.6168566321909602,0.030126751395256866
2057,1.058117249649697,0.14547996588131595
2058,1.052598559314101,0.04502730289769999
2059,0.5886581421475204,0.038867951448360735
2060,0.05160709027665532,0.0442582929188714
2061,-0.26168764511934506,0.10173449870958755
2062,-0.30723797653176704,0.11879826054228533
2063,-0.2096224180723034,0.1354781199003569
2064,-0.10481840857515778,0.132802129079388
2065,-0.04865943801406919,0.050629595368855966
2066,-0.026550180206859838,0.05541493275311826
2067,-0.01743914451852218,0.02796203485396992
2068,-0.008832354683569184,0.06633913244699315
2069,0.004872887357768448,0.10482378492931943
2070,0.022748610268514116,0.103208555418837
2071,0.04475743518229439,0.12398050210666439
2072,0.07212969217977612,0.07157291699317715
2073,0.10512053245984052,0.04567724684341816
2074,0.14346840157751817,0.0638704114203447
2075,0.18639367187833453,0.13601408812891147
2076,0.23291014850421768,0.12788161722863095
2077,0.2805256763924077,0.11341187784292488
2078,0.32613281218984647,0.10741310428350752
2079,0.3668946071493529,0.07987386342442915
2080,0.4002511622458405,0.05557141760807126
2081,0.42391967285889354,0.09291298410716563
2082,0.43589442877285894,0.08828473447225771
2083,0.4341013164289588,0.08006589269017073
2084,0.417826940493486,0.052646510494623565
2085,0.3899947336127594,0.0393289985307259
2086,0.35355094916363855,0.13647139228809158
2087,0.3112287147302781,0.05569455301716653
2088,0.26555059209833853,0.04561673517004981
2089,0.21882722549228828,0.13986040409730136
2090,0.17315582842976246,0.05877787830979853
2091,0.1304201696994817,0.08537238376031957
2092,0.09229057336120954,0.12815765067488552
2093,0.060223918745853824,0.02952660239133784
2094,0.03502777860181012,0.10798255955797255
2095,0.015939192537811078,0.061354571028052474
2096,0.0019784089563549376,0.057283348206904394
2097,-0.007747446907541327,0.09395355658774271
2098,-0.014053543774779803,0.10776769771013654
2099,-0.01767305229005361,0.0992198989894373
2100,-0.019251390745453033,0.034930828457928595
2101,-0.019346155194582937,0.11287758747686451
2102,-0.018427119452560113,0.0661535591322203
2103,-0.016876235096014686,0.022043152013925132
2104,-0.014987631463091754,0.08675079918007263
2105,-0.01296752555650585,0.0702348408153216
2106,-0.0107978492194875,0.0980197680416738
2107,-0.008562872074239735,0.059742547718680705
2108,-0.006453652029907562,0.08954834762990421
2109,-0.0045677620122140045,0.10567736728367651
2110,-0.0029212478629024145,0.04384018043853005
2111,-0.0014488132774758832,0.12949649309120675
2112,-3.819805192263517e-06,0.11356286624044547
2113,0.0016417131509304595,0.11362554718532053
2114,0.0037969784822061616,0.09995819896799359
2115,0.006850648545284043,0.08865899804111213
2116,0.011268318348350728,0.07879979172505425
2117,0.017444452970555142,0.06713487410568864
2118,0.02788039536047033,0.12015491761469393
2119,0.04515029992947622,0.08532065101121232
2120,0.07069083547368488,0.09683057389108919
2121,0.10480140175885727,0.04738870882489853
2122,0.14664412952033007,0.105282062989867
2123,0.19444595029640724,0.0983340133771987
2124,0.24293742872829902,0.04641871906687776
2125,0.2824489507098412,0.08528761126185767
2126,0.3060249750886847,0.042968511597519535
2127,0.3099571056236997,0.11372679824769132
2128,0.29379642198455735,0.10380387916507626
2129,0.2603456833571096,0.07220462343514424
2130,0.2153873459585139,0.03332484994252311
2131,0.16720486971495097,0.06867506327459237
2132,0.12263183210783825,0.11833356986285867
2133,0.08596107877219387,0.06646994553370024
2134,0.05894485392877016,0.04447919686573282
2135,0.04079792015751687,0.08762039157903247
2136,0.028812064292723538,0.06405015685631113
2137,0.010304096144658438,0.07978344482671547
2138,-0.030565513292962122,0.07624416837269933
2139,-0.10071171641882423,0.06712334533895226
2140,-0.14542544029526047,0.10613698847523317
2141,-0.05375434700599561,0.03743969721637663
2142,0.2730055524875608,0.07527911236190156
2143,0.7787617617540356,0.09060350432262272
2144,1.1616780132356543,0.05100518621793661
2145,1.0423229947504247,0.12244395390009002
2146,0.5461222525147572,0.1256629829253464
2147,0.03869102059022715,0.04420426533822654
2148,-0.2041772190569446,0.11144115665538981
2149,-0.20051726450786103,0.08173183740657204
2150,-0.08662804994488878,0.06321843263573035
2151,0.0042707624162185605,0.033877241753192594
2152,0.042577117199472346,0.08643253551859141
2153,0.0561473801978429,0.09276874932786879
2154,0.06491075197316275,0.03993003384407663
2155,0.07591488127210916,0.09016788237916473
2156,0.09048988920045128,0.05390369554259
2157,0.10953987061805188,0.048292506884355144
2158,0.1338033280699383,0.09983711213392507
2159,0.16369360990539347,0.09147026303911839
2160,0.19939128227736064,0.07846585201857158
2161,0.24034989876460652,0.1390354264294144
2162,0.28492304382919353,0.09307667979801859
2163,0.33109401925989185,0.07826429001344685
2164,0.3765023238430399,0.0970269955154957
2165,0.41844365336241746,0.053977164402654196
2166,0.4538699005993695,0.0961931893242216
2167,0.4794319167071352,0.1024627908339339
2168,0.4927348473011443,0.05854487817076138
2169,0.4928880179948293,0.08373203257250138
2170,0.4798688038186366,0.07489376541137757
2171,0.45454095666174377,0.04559829014285734
2172,0.41865460527209647,0.09215994263110357
2173,0.3748462552563372,0.06027838277122686
2174,0.32663880786885663,0.09301179389956832
2175,0.27763031045869635,0.050548157216392955
2176,0.23028233378971863,0.08553246886624132
2177,0.1867569698878067,0.067800042883159
2178,0.1485699230969457,0.07037419683964559
2179,0.11658886008415112,0.07097364481344363
2180,0.09103471904422547,0.08828267472064073
2181,0.07148177896850427,0.12032920186488719
2182,0.05691449870667068,0.09698150956146113
2183,0.0465209411842148,0.1374209162975697
2184,0.03942714286869237,0.06988392816453454
2185,0.03478058105482369,0.1013903110684448
2186,0.031858378427624276,0.11658872254381213
2187,0.03006798638941681,0.09434972811647348
2188,0.028967935276441596,0.13468131418416507
2189,0.02827159323456159,0.03472740182321862
2190,0.027823415060664953,0.05080016767816595
2191,0.027611722070592825,0.11497870867910821
2192,0.027560523157458074,0.0755883195914415
2193,0.027548286478251874,0.04717622913941479
2194,0.027516270191697105,0.07058415589007036
2195,0.027468015533334347,0.09942364558618175
2196,0.027468167971414596,0.14664544953078948
2197,0.02764318576148402,0.07306486650164976
2198,0.028154891366111125,0.0675650715205849
2199,0.029192989004563803,0.024529772406717016
2200,0.03100780016679746,0.07520348159662525
2201,0.033833070534404666,0.08642071653174249
2202,0.03851974844672247,0.09149245160805416
2203,0.047505296171320176,0.06289182639837976
2204,0.0628023840284339,0.09124497612917012
2205,0.0857984748478944,0.06133291264607634
2206,0.11725582396908239,0.034306797427899834
2207,0.1573876016177436,0.13460141242086066
2208,0.20480125218454234,0.06461444662987328
2209,0.2508116240646535,0.03192714644319972
2210,0.28713194736779607,0.07139352342437486
2211,0.30780351411490653,0.06867551569523685
2212,0.30919567823823235,0.06126773057855907
2213,0.29000585558127717,0.07589531715708403
2214,0.25232953013584053,0.01612711376093979
2215,0.20471043292718633,0.0721580826073529
2216,0.15556178125408848,0.11752500290131411
2217,0.11097637491224271,0.03181599481532556
2218,0.0747332853662216,0.11132123392507828
2219,0.049013458613175145,0.035423660513131804
2220,0.03510562793117332,0.09136650902509856
2221,0.0167280294198597,0.08486982433949765
2222,-0.018219195957857294,0.05214256974634368
2223,-0.07295221967570403,0.06847989507392305
2224,-0.1414884756637737,0.02620575575700371
2225,-0.14687726565114778,-0.12107725693034169
2226,0.05873592482189012,-0.038973433144434314
2227,0.4950963447459279,0.23811283786333892
2228,0.9936911596127797,0.038908022451376714
2229,1.1128692370629418,-0.39932997145976284
2230,0.7211236011543557,0.6290901695579149
2231,0.16804675259961513,-0.1879377088811611
2232,-0.18556828468084674,-0.2945411396936414
2233,-0.250773509453352,0.43196500825281453
2234,-0.16216137979789064,0.6173397219462436
2235,-0.061057339501974506,0.8917003580228045
2236,-0.007901718303607426,-0.21284255448220438
2237,0.010984178657196282,0.90069622484234
2238,0.019419385134957598,-0.33273962748374836
2239,0.027056231401269185,-0.7020555770558408
2240,0.03876115878984311,0.2671137136013735
2241,0.054855727032203844,0.1961481231014988
2242,0.07561338596701551,-0.08155044471795142
2243,0.10199250383104179,0.37252906683964654
2244,0.1341843862379275,-0.05154339550649446
2245,0.17179605704438283,-0.07933170976434593
2246,0.21389096341325542,-0.6213657880933792
2247,0.25923101671689247,-0.2715534957631271
2248,0.3046793592627765,0.7285969759224659
2249,0.34689475296869715,0.6863434542786593
2250,0.3829038658626704,-0.7649584135600226
2251,0.4101060963357883,0.5217919166492972
2252,0.42627357314227793,0.4281313136881404
2253,0.42955115539950434,0.17548143495061652
2254,0.4176651730394447,0.3750387338453021
2255,0.3915956586902695,0.8034711755478391
2256,0.3551377347033247,-0.1910002334741657
2257,0.31170874777688345,-0.6165634617030438
2258,0.26434609998303554,0.5016192229750909
2259,0.215718214599461,0.27509800785289473
2260,0.16810587971843133,-0.22431231958199885
2261,0.12339961238412044,-0.09455097217157685
2262,0.08309965859247234,-0.03130123491915869
2263,0.04831599329132544,0.8930829404111313
2264,0.019768320380300894,-0.9649360845353452
2265,-0.0023441458082515375,1.1419265951365771
2266,-0.018839781750916475,-0.365886279560181
2267,-0.030759876039686457,-0.46531248757225846
2268,-0.039038511773005616,0.9075710155740762
2269,-0.04451233689787199,-0.6650431551174175
2270,-0.04790471572403756,0.9078151967492042
2271,-0.04982322420908122,0.5278433704160232
2272,-0.050759649958398476,-0.20724009274510038
2273,-0.05108999222520791,-0.44768714228515194
2274,-0.051074461910547216,0.28346056164652267
2275,-0.05085738761538248,-0.3647700016040867
2276,-0.05046956832970658,-0.5825055704032276
2277,-0.05004852367182409,-0.5701726312255873
2278,-0.04973269040263672,-0.4724534413159932
2279,-0.049570207131356604,-0.8928484571799417
2280,-0.04954003047056803,-0.25845693321543295
2281,-0.04955566602524303,-0.2194329993927651
2282,-0.049465168392739935,-0.8266376380123964
2283,-0.04905114116280492,-0.12577265368141877
2284,-0.04803073691757058,-0.34643465979399557
2285,-0.04609953880153017,0.15737599163026678
2286,-0.04234546702298596,-0.660595176437798
2287,-0.03463230372172925,0.929122017767878
2288,-0.02103419560340946,0.023168224984610172
2289,2.5082397191131603e-05,-0.10795957347285584
2290,0.029785303415670386,0.19567572585160597
2291,0.06927877895787943,-0.09343555237746054
2292,0.1156912828171351,-0.8804459818262468
2293,0.16142435249982107,0.8452419535462953
2294,0.19950235767880817,0.8948580127265972
2295,0.2238405348958402,1.1381107110218966
2296,0.2292481784912981,-0.2716480723281949
2297,0.21187884914117616,-0.8647918191709539
2298,0.1760763463247982,-0.18441684879521367
2299,0.1307461974634523,0.7278894475461009
2300,0.08324988654932985,-0.5928515109456493
2301,0.03929941667767165,0.10126139550364531
2302,0.0029573100467150844,-0.3203694492801568
2303,-0.02358558589763462,-0.4450245515696814
2304,-0.04135915104099698,-0.39274559759938016
2305,-0.054750198102057605,-0.9972750085499604
2306,-0.07741044557970589,1.0024975966256604
2307,-0.12998975463117501,0.327649219263117
2308,-0.2013975216788172,0.04190333277872749
2309,-0.2113966069847331,1.0017452079999156
2310,-0.03519682654779065,0.9920256355449961
2311,0.3961666437420052,0.23502098718917358
2312,0.8969879669530915,0.7134597653048937
2313,1.0458386835144533,0.9464095797751898
2314,0.6786585379216663,-0.2878093211603801
2315,0.11719091417254156,-0.23229014836305883
2316,-0.26886546584010623,0.7660299422035858
2317,-0.37897150194374934,-0.3234377097909542
2318,-0.30215099068173235,0.12674726410226092
2319,-0.19048711179331554,0.20395494390034183
2320,-0.12659215233198076,-0.46773105776195645
2321,-0.10277683847614962,0.7759949084412039
2322,-0.09427712012236589,-0.15893671749776309
2323,-0.08721680159519092,1.0505644007685755
2324,-0.07589946370082123,-0.05193813129335792
2325,-0.0609316149146006,0.10412758230617208
2326,-0.04115570850372113,0.13681543155818443
2327,-0.015784002058182096,0.06551030769565966
2328,0.015460936684353914,0.0774833979874745
2329,0.05235869472027275,0.03805610404593826
2330,0.09444574085957827,0.09480313063529137
2331,0.14093201485519183,0.06389111701924992
2332,0.18857434304165213,0.04963787918187219
2333,0.23416141157377138,0.03440925108769117
2334,0.274826155893451,0.1200964650757104
2335,0.30804577924033133,0.10637286369964645
2336,0.33164528383600833,0.04619409364275048
2337,0.34380166452751726,0.0807925337961473
2338,0.34304846740715184,0.055106802798681284
2339,0.32808612106673585,0.0771572618069084
2340,0.2996419123525948,0.04541834215552827
2341,0.2613291932950488,0.07499155524122009
2342,0.21651740563138266,0.044004694766711566
2343,0.16819943079238017,0.0792658084209498
2344,0.11899158990226268,0.08899156331254267
2345,0.07113364377880763,0.119669258752252
2346,0.026488792933216362,0.05448237176778524
2347,-0.013456322429757174,0.09142924374004824
2348,-0.047595092058473995,0.02207399765312733
2349,-0.0752148007367766,0.02651643099496937
2350,-0.09642362485712386,0.11450674060289877
2351,-0.11220790375157264,0.014832703031028491
2352,-0.12352832907849232,0.11554740053434061
2353,-0.13124520737584483,0.06923295115388209
2354,-0.13611846006116143,0.05983041484882423
2355,-0.138807624681303,0.1319821845347474
2356,-0.13987486689851603,0.059415167554712975
2357,-0.1397914475071535,0.06294568682417095
2358,-0.13893194548385912,0.053746043436843936
2359,-0.13757975699888272,0.06978542508619884
2360,-0.13592075852926397,0.08815309649754849
2361,-0.13403926306563307,0.10742532759805842
2362,-0.13181528927057845,0.11051092405575776
2363,-0.12941583768023757,0.07239847969864799
2364,-0.1271094852134581,0.10894504037942619
2365,-0.1250420287626384,0.06062239180282847
2366,-0.1232364851937229,0.09355494421998102
2367,-0.12159309134620659,0.09851175075202802
2368,-0.1198847466723022,0.11521264841812426
2369,-0.11773664234922915,0.05075962641430454
2370,-0.11464270928320075,0.11027832711145052
2371,-0.10997409130064616,0.08319237089658997
2372,-0.10309329172150042,0.04801783177608655
2373,-0.09244957188640278,0.11807372405039349
2374,-0.07486138050241489,0.08673758463358283
2375,-0.048494791110267034,0.082140072284951
2376,-0.013107722934546184,0.08491020396944128
2377,0.02995567640854119,0.08239330226074498
2378,0.07776825125831485,0.06539541362074232
2379,0.12481033693120551,0.043191108588444264
2380,0.16247421174875312,0.07744223020818444
2381,0.18412306352303642,0.11293215224115095
2382,0.18587752065205687,0.08366194835986013
2383,0.16672249053382746,0.08515920542437086
2384,0.13099697820375086,0.12719895055354305
2385,0.08607687100723524,0.09177897765044284
2386,0.038889892807409815,0.06890033644103974
2387,-0.00420510713862523,0.0455216025352866
2388,-0.039753198159136485,0.09038086139849413
2389,-0.064730985011425,0.0648290377811412
2390,-0.07982204013886686,0.10302455372745825
2391,-0.09177271445948772,0.13498625710158568
2392,-0.11339217421655928,0.04893124237224935
2393,-0.18688849575822833,0.029806160609120648
2394,-0.27456678315717736,0.08981417700408874
2395,-0.25772942371958485,0.11058082189897443
2396,-0.06916686195207795,0.10134218945390337
2397,0.3052340282429018,0.04174809814322385
2398,0.8098313777048826,0.0974828521858024
2399,1.0725012640071077,0.07828508805467001
2400,0.8141820810565031,0.0240209464148066
2401,0.26290996455304444,0.0808338023285662
2402,-0.19612718002148366,0.08381095568748068
2403,-0.38722614720665044,0.057902407322370356
2404,-0.35220294358979615,0.10151386904752965
2405,-0.24001354937909322,0.03995642424910773
2406,-0.15260820653969062,0.11753335558695008
2407,-0.11306538020630247,0.05905426883476588
2408,-0.09773657721787837,0.06028035946051208
2409,-0.08978829880259256,0.09586272634429889
2410,-0.07940672121025083,0.14298706929059798
2411,-0.06352237638142688,0.03364081317522455
2412,-0.04413796360068498,0.08599493516420897
2413,-0.020051922948105858,0.06307245584572718
2414,0.009469435021430847,0.0559107669334557
2415,0.04449696707112343,0.044499648178716475
2416,0.08458751841439943,0.059061547403454255
2417,0.12878828632698985,0.10297462434544734
2418,0.17602540766072572,0.09626593074366312
2419,0.22384398431472988,0.09579398186392604
2420,0.26890984694145176,0.10421342876340066
2421,0.3083275620751138,0.03814941420826381
2422,0.33964297896747264,0.09006386692762301
2423,0.3608432295879274,0.08383149125922532
2424,0.3703567286234338,0.11614977445468232
2425,0.3670531734785625,0.05398384305285667
2426,0.34962047810693087,0.11379492308835516
2427,0.3198230997504496,0.1173650876618826
2428,0.28124709864727687,0.03608951498501739
2429,0.23710027864673056,0.041977566581679816
2430,0.1902109656556895,0.1366136850554992
2431,0.14302651930660226,0.108091461271051
2432,0.09761331588957876,0.08289516171525244
2433,0.05565674835252046,0.06764527130729492
2434,0.01846122630099367,0.018947435043683895
2435,-0.013049824001663586,0.10335801642161425
2436,-0.03833404614969671,0.041886348307185885
2437,-0.05733675828442835,0.11832147130563224
2438,-0.07086665782919992,0.04245329439299627
2439,-0.07990980586716653,0.0776381632181147
2440,-0.08537583612661119,0.06583591040107684
2441,-0.08807551671733786,0.10841217986511713
2442,-0.08872042054031248,0.09583409404972193
2443,-0.08792292528767413,0.07185587731542105
2444,-0.08619621344273001,0.08450855339760596
2445,-0.08395427227995729,0.10392503648237643
2446,-0.08151189386500104,0.09760629048518932
2447,-0.07908467505467782,0.05177043143090906
2448,-0.07675301878827177,0.02840278354698567
2449,-0.07457625665408729,0.07316222162279273
2450,-0.07264390808688917,0.05330452508602691
2451,-0.070987455660234,0.10503292445773123
2452,-0.06958046220317064,0.13455538107918208
2453,-0.06833857080023698,0.10793796709987798
2454,-0.06711950479146626,0.06499554720163186
2455,-0.06572306777237993,0.12958885729141306
2456,-0.06389108668952864,0.019979655017071562
2457,-0.06130572924701311,0.01950970011641121
2458,-0.05763948525321914,0.07287184763571276
2459,-0.05210246546121076,0.06429779941238306
2460,-0.04263188586020135,0.03777032172651151
2461,-0.027395358317274104,0.057546369302356
2462,-0.004961940887330917,0.15373391392366226
2463,0.02569786218686375,0.07889032245427334
2464,0.06526849418070987,0.07978553549804805
2465,0.11312355724595943,0.06251493440933385
2466,0.1624442266247659,0.09074165803857773
2467,0.20609672104176083,0.09749164801613952
2468,0.23815169811666098,0.08300117176911476
2469,0.2538760768056995,0.0882111594993275
2470,0.24973488177521924,0.10303496678976583
2471,0.22425104832869716,0.05311312936228271
2472,0.18444458016805154,0.11326890437530043
2473,0.1388924206838313,0.08193110618665578
2474,0.0942035770291802,0.04765176846520199
2475,0.055019120119714986,0.09287888650030154
2476,0.024012176161517455,0.07028257715473708
2477,0.0018873545890002222,0.08103422828399548
2478,-0.010476226858083856,0.09215726971527109
2479,-0.018441014507110866,0.1285344126802932
2480,-0.04936907043590967,0.1285035534209399
2481,-0.10881428704603564,0.07065104233934838
2482,-0.17597261653529553,0.04750812987406993
2483,-0.19495919935589376,0.09626139744688145
2484,-0.026951996943851364,0.1149691049002781
2485,0.37895150362912844,0.08714649699401576
2486,0.8963144273732792,0.04654763214915303
2487,1.1572821836928666,0.1089315988367806
2488,0.9003741462237967,0.06435270520161308
2489,0.34855676878999703,0.07249330540891465
2490,-0.10201019240360046,0.05889683911759232
2491,-0.27882397478359733,0.07292289950403953
2492,-0.23511062264177907,0.07452333962742728
2493,-0.12438193899535294,0.05725451356412184
2494,-0.04116807336543679,0.07291286861671543
2495,-0.00503957112773199,0.10697862392062162
2496,0.009058923432313678,0.1064058022554834
2497,0.017131749951926883,0.10242969633007837
2498,0.028030165444456575,0.03410199040481935
2499,0.04394548318379241,0.09799478938024378
2500,0.06334746150638271,0.05204963038056066
2501,0.08774911400373488,0.03994553268497797
2502,0.11767924155026785,0.06444140088789378
2503,0.1531589703942269,0.06499521050284104
2504,0.19371744400695562,0.08715652858643418
2505,0.23867912322104692,0.03855772401071684
2506,0.2862487752131878,0.07229932790139805
2507,0.33333317451965694,0.07469908662070007
2508,0.3770719917237785,0.08357080975572083
2509,0.41483343954598595,0.07279027169545231
2510,0.44421200520069914,0.10544681119108329
2511,0.46306249898035207,0.06886035883927422
2512,0.4695018001876882,0.11803011569175403
2513,0.46118275793207114,0.0637745543248544
2514,0.43898640640076825,0.11936596119659292
2515,0.40638072015188853,0.05504692331914961
2516,0.366510170711081,0.06869153727889085
2517,0.3221905135989231,0.0824121774856096
2518,0.2759101596080384,0.11124584158675989
2519,0.22984909901740969,0.07966575859990699
2520,0.18588185340848185,0.09677781585111676
2521,0.14555523959573313,0.08977670835103868
2522,0.11008706010901695,0.05912155167464418
2523,0.08036610319345003,0.02943147865516547
2524,0.056901480582999195,0.12686052549825239
2525,0.03921196713068419,0.044447749586419213
2526,0.026285652315135154,0.07450124119795656
2527,0.017201640308520873,0.08037803360469606
2528,0.011142539092980693,0.026498148554706655
2529,0.007400735654932241,0.09063668063982996
2530,0.005380008417314315,0.13179802362186502
2531,0.004587967132656483,0.09517903178277518
2532,0.0046355445056906535,0.06403795687383701
2533,0.005236996193353155,0.09541932439364195
2534,0.006209900804785386,0.07830331827560774
2535,0.007475159901332138,0.1173452622742644
2536,0.009038039444422894,0.11066248424358018
2537,0.010844980679172299,0.0629614831928247
2538,0.012829574633219112,0.10336658246315851
2539,0.014940928875014171,0.14263726258116158
2540,0.017132473005994162,0.05709083793772869
2541,0.019402863479209276,0.08769133477948832
2542,0.02179910899336526,0.07404490239487113
2543,0.024416570492827784,0.13575466552630974
2544,0.027398957793969753,0.0653203066278809
2545,0.030889552345224277,0.09932413745594237
2546,0.03600412153458561,0.07455932430453709
2547,0.0443362862677154,0.08374622468046165
2548,0.05742830502257308,0.10690927188431777
2549,0.07681738736588332,0.09479350426566588
2550,0.1040576527078137,0.044217377334383384
2551,0.1408300694007369,0.06131121826150014
2552,0.18547938473730927,0.08371281935861206
2553,0.2315412214336671,0.0702274363570118
2554,0.27278798244654506,0.05313256760142358
2555,0.3034827794944175,0.11479377503659968
2556,0.31837943305740274,0.10648649546043451
2557,0.31269222040694583,0.07132043224910488
2558,0.2853802081817714,0.08505812801065893
2559,0.24457063491416334,0.0975270846852264
2560,0.19826802997681753,0.07736162651400745
2561,0.1527680185015491,0.045423079678761115
2562,0.11266310455433985,0.08450549035393046
2563,0.08084267113528179,0.043151784748886514
2564,0.05851003164768038,0.12224083092753509
2565,0.04472245542344946,0.06582022498607284
2566,0.030949594201736756,0.08117911919857285
2567,0.004630279716141962,0.1087991102397312
2568,-0.049085194089512174,0.06056316128889555
2569,-0.11975369288137036,0.06072493237643792
2570,-0.1154866382790605,0.06695982497300765
2571,0.07644290174467266,0.049033623479766815
2572,0.5079151457283291,0.04771903889874354
2573,1.0126441483563104,0.04138907306362951
2574,1.1853827720202472,0.08913600067297693
2575,0.8499945044219714,0.07909455076674979
2576,0.2647403276301395,0.049496833877395396
2577,-0.12290827023885309,0.08568197893895327
2578,-0.23625276510309162,0.12977784693284591
2579,-0.15732229879702028,0.11759176146941956
2580,-0.04659106805103361,0.053071872138119036
2581,0.017953126947069246,0.08983766260602302
2582,0.039210386912612145,0.07786764123460334
2583,0.04835718828424554,0.06198707052686114
2584,0.05673244443025796,0.055500824061207744
2585,0.06844107190178521,0.12086973955763226
2586,0.08408074415000143,0.051019954167489154
2587,0.10463927933825219,0.11979898800818463
2588,0.13070699557091017,0.10429706971517799
2589,0.16252832532752798,0.1464066512586633
2590,0.2002989853242982,0.06949722819194062
2591,0.24297838425102558,0.038712389820914975
2592,0.28831330799231636,0.05782716431140249
2593,0.33393134195822577,0.07827900422706181
2594,0.3773449127956549,0.11453172531592958
2595,0.4159512883884028,0.13796283790438396
2596,0.44703257785720396,0.07462265189265113
2597,0.4677556782569097,0.06398292289916323
2598,0.4752805199234534,0.11630453091309263
2599,0.4688161809064188,0.05020364186833515
2600,0.449634626090015,0.05231996687145653
2601,0.4194286737735402,0.05390766865497842
2602,0.38025772876141406,0.08830893254214489
2603,0.3345477823632435,0.06928700640731962
2604,0.28509141239379937,0.053593906680723176
2605,0.23504778317295527,0.09927573356878304
2606,0.18788079297885518,0.0012864389438760962
2607,0.14567381166814844,0.06757679792500597
2608,0.10905043480962351,0.08421930341611102
2609,0.07836430913452298,0.0903359349422859
2610,0.05367089033139082,0.07821462627540422
2611,0.034710854400094804,0.06775008466086319
2612,0.02090723831678047,0.018971953278718416
2613,0.011365440033836462,0.038173605077813894
2614,0.004882418196528286,0.04451799088261217
2615,0.0006018682994360165,0.05237365679534342
2616,-0.0019417477362337556,0.09674250085385626
2617,-0.0032361696635647527,0.07258175167647207
2618,-0.003670561475313077,0.06587239557330132
2619,-0.0035455050913716325,0.04565913360937562
2620,-0.003088239598181732,0.11692532071865226
2621,-0.0024309529463305505,0.13573750059856934
2622,-0.0016018288184746466,0.12149455967351763
2623,-0.0006588385893665759,0.031322705489727196
2624,0.0002521192354469086,0.031641853465017404
2625,0.001049751513270376,0.11584070122730955
2626,0.0017238451654551035,0.09055341413866842
2627,0.0023352671774011574,0.02079032730641263
2628,0.003015972859367831,0.0886587886224076
2629,0.003976725560709672,0.051245004217650054
2630,0.005521384295518169,0.02869239420824935
2631,0.008026713279961314,0.044219999316044936
2632,0.013063932936309652,0.10706975130887209
2633,0.022596054477702104,0.05787341362035482
2634,0.03836255479506614,0.13550915877739556
2635,0.06187937645708617,0.08191558830481857
2636,0.09445972775536722,0.10302311833571684
2637,0.13647190909897883,0.055465744279861354
2638,0.1823811137018355,0.123049390976683
2639,0.2253907640390758,0.09268516070834405
2640,0.25910971124411586,0.07902396907796384
2641,0.2775543263957239,0.07159349422312469
2642,0.2751259342809067,0.07073679156521534
2643,0.2502644588080186,0.09477085400519591
2644,0.2104933549922894,0.0635795099419646
2645,0.16351158051977518,0.09073609138486342
2646,0.11579505169904632,0.07189733168197764
2647,0.07259664346130462,0.1053528510263808
2648,0.03794618861677568,0.04235066768483896
2649,0.013167904100520718,0.11341693323449109
2650,-0.0029511653108876585,0.045413946227484674
2651,-0.01689360925161852,0.05339479547991079
2652,-0.044391577579905195,0.03110224917320345
2653,-0.10367094644666244,0.09725945531892388
2654,-0.17220663017079096,0.08653672493145632
2655,-0.15702563159105645,0.09770781452721773
2656,0.0680077073347886,0.08069209344316158
2657,0.5325228410072403,0.11573786236996725
2658,1.0087694824469482,0.056702101710024634
2659,1.0739333581856267,0.036739677465802284
2660,0.6422870474581824,0.14433234013170645
2661,0.09474580838340127,0.07058835381317437
2662,-0.23892016993946427,0.1294574676509371
2663,-0.29658189895396875,0.020865536610629544
2664,-0.2020678858288791,0.0940262808007738
2665,-0.1002990769080953,0.0911221758682508
2666,-0.04835546329662203,0.06604592098273811
2667,-0.028053733766290178,0.0514545873696363
2668,-0.020790944576886277,0.04711963155928115
2669,-0.015420233374846729,0.033164185510932684
2670,-0.005344812259784988,0.043518807468264205
2671,0.011479091477143098,0.06780717994876001
2672,0.03299535582750878,0.07682493823859868
